# Matter power spectrum P(k) at redshift z=0
# for k=1.04775e-05 to 157.312 h/Mpc,
# number of wavenumbers equal to 257
#    1:k (h/Mpc)              2:P (Mpc/h)^3        
       1.047750691338e-05       5.020963906804e+01 
       1.131335172818e-05       5.407048937148e+01 
       1.221587619877e-05       5.822820724029e+01 
       1.319039970550e-05       6.270562047249e+01 
       1.424266598317e-05       6.752731476098e+01 
       1.537887697396e-05       7.271975715395e+01 
       1.660572938097e-05       7.831147101246e+01 
       1.793045413791e-05       8.433312302135e+01 
       1.936085902737e-05       9.081780130646e+01 
       2.090537469909e-05       9.780107449476e+01 
       2.257310435923e-05       1.053212938596e+02 
       2.437387742372e-05       1.134197268469e+02 
       2.631830745176e-05       1.221408285625e+02 
       2.841785470091e-05       1.315324590474e+02 
       3.068489367268e-05       1.416461671357e+02 
       3.313278604643e-05       1.525374478902e+02 
       3.577595943165e-05       1.642660517215e+02 
       3.862999240274e-05       1.768963429375e+02 
       4.171170631739e-05       1.904975997820e+02 
       4.503926445983e-05       2.051444243234e+02 
       4.863227909323e-05       2.209171412049e+02 
       5.251192705226e-05       2.379022266147e+02 
       5.670107455699e-05       2.561927841240e+02 
       6.122441198393e-05       2.758890479663e+02 
       6.610859938837e-05       2.970989213982e+02 
       7.138242363583e-05       3.199385559930e+02 
       7.707696806873e-05       3.445329727006e+02 
       8.322579570814e-05       3.710167324010e+02 
       8.986514707061e-05       3.995346444121e+02 
       9.703415376577e-05       4.302425389349e+02 
       1.047750691338e-04       4.633080773458e+02 
       1.131335172818e-04       4.989116271607e+02 
       1.221587619877e-04       5.372471938794e+02 
       1.319039970550e-04       5.785234116880e+02 
       1.424266598317e-04       6.229645933132e+02 
       1.537887697396e-04       6.708118487510e+02 
       1.660572938097e-04       7.223242657764e+02 
       1.793045413791e-04       7.777801571267e+02 
       1.936085902737e-04       8.374783638365e+02 
       2.090537469909e-04       9.017396276730e+02 
       2.257310435923e-04       9.709080297651e+02 
       2.437387742372e-04       1.045352453376e+03 
       2.631830745176e-04       1.125468127721e+03 
       2.841785470091e-04       1.211678185928e+03 
       3.068489367268e-04       1.304435256065e+03 
       3.313278604643e-04       1.404223062921e+03 
       3.577595943165e-04       1.511558029577e+03 
       3.862999240274e-04       1.626990852555e+03 
       4.171170631739e-04       1.751108045602e+03 
       4.503926445983e-04       1.884533404755e+03 
       4.863227909323e-04       2.027929406956e+03 
       5.251192705226e-04       2.181998483913e+03 
       5.670107455699e-04       2.347484146066e+03 
       6.122441198393e-04       2.525171925196e+03 
       6.610859938837e-04       2.715890054979e+03 
       7.138242363583e-04       2.920509779320e+03 
       7.707696806873e-04       3.139945208051e+03 
       8.322579570814e-04       3.375152477018e+03 
       8.986514707061e-04       3.627128020461e+03 
       9.703415376577e-04       3.896905669504e+03 
       1.047750691338e-03       4.185552452611e+03 
       1.131335172818e-03       4.494162775567e+03 
       1.221587619877e-03       4.823851150588e+03 
       1.319039970550e-03       5.175743278701e+03 
       1.424266598317e-03       5.551020298669e+03 
       1.537887697396e-03       5.950789185414e+03 
       1.660572938097e-03       6.376124150029e+03 
       1.793045413791e-03       6.828075236558e+03 
       1.936085902737e-03       7.307627051012e+03 
       2.090537469909e-03       7.815673958997e+03 
       2.257310435923e-03       8.352992922904e+03 
       2.437387742372e-03       8.920214306240e+03 
       2.631830745176e-03       9.517787166543e+03 
       2.841785470091e-03       1.014594130650e+04 
       3.068489367268e-03       1.080465136448e+04 
       3.313278604643e-03       1.149358239464e+04 
       3.577595943165e-03       1.221204586791e+04 
       3.862999240274e-03       1.295893666400e+04 
       4.171170631739e-03       1.373267338488e+04 
       4.503926445983e-03       1.453113499853e+04 
       4.863227909323e-03       1.535157115058e+04 
       5.251192705226e-03       1.619066154979e+04 
       5.670107455699e-03       1.704433880928e+04 
       6.122441198393e-03       1.790758124545e+04 
       6.610859938837e-03       1.877461996363e+04 
       7.138242363583e-03       1.963874650014e+04 
       7.707696806873e-03       2.049217384535e+04 
       8.322579570814e-03       2.132608014045e+04 
       8.986514707061e-03       2.213056717391e+04 
       9.703415376577e-03       2.289447297162e+04 
       1.047750691338e-02       2.360549524900e+04 
       1.131335172818e-02       2.425024122589e+04 
       1.221587619877e-02       2.481424701804e+04 
       1.319039970550e-02       2.528219961566e+04 
       1.424266598317e-02       2.563815120900e+04 
       1.537887697392e-02       2.586607603647e+04 
       1.660572938023e-02       2.595027074323e+04 
       1.793045412706e-02       2.587635544577e+04 
       1.936085890181e-02       2.563219705342e+04 
       2.090537352463e-02       2.520936134923e+04 
       2.257309535333e-02       2.460445411294e+04 
       2.437382002918e-02       2.382088576163e+04 
       2.631799944462e-02       2.287044826629e+04 
       2.841644545389e-02       2.177448612172e+04 
       3.067933355377e-02       2.056556750070e+04 
       3.311368470740e-02       1.928731460318e+04 
       3.571840443502e-02       1.799401975670e+04 
       3.847720348444e-02       1.674684609249e+04 
       4.135335538431e-02       1.560459588234e+04 
       4.429361667738e-02       1.461037662293e+04 
       4.724366439141e-02       1.378055698221e+04 
       5.016480835311e-02       1.310505266659e+04 
       5.303989620246e-02       1.255717831907e+04 
       5.586870669566e-02       1.210423719687e+04 
       5.866042680613e-02       1.171465070760e+04 
       6.142798932958e-02       1.136046802132e+04 
       6.418496440164e-02       1.101854840073e+04 
       6.694418833788e-02       1.067067029099e+04 
       6.971731106057e-02       1.030357726729e+04 
       7.251476155766e-02       9.909006157150e+03 
       7.534587671527e-02       9.483724868056e+03 
       7.821907666265e-02       9.029491402499e+03 
       8.114203772912e-02       8.552304793846e+03 
       8.412184535029e-02       8.061878644644e+03 
       8.716512279304e-02       7.570762427800e+03 
       9.027813695930e-02       7.092480482010e+03 
       9.346688431697e-02       6.640513278933e+03 
       9.673716028275e-02       6.226699471485e+03 
       1.000946150830e-01       5.859924588588e+03 
       1.035447986537e-01       5.545262503738e+03 
       1.070931966762e-01       5.283134041214e+03 
       1.107452594425e-01       5.069420066503e+03 
       1.145064249153e-01       4.895245956118e+03 
       1.183821370918e-01       4.747834833437e+03 
       1.223778605862e-01       4.611695222909e+03 
       1.264990921987e-01       4.470614071395e+03 
       1.307513701367e-01       4.310244587126e+03 
       1.351402814784e-01       4.121364685276e+03 
       1.396714684203e-01       3.902052635825e+03 
       1.443506338194e-01       3.658640279420e+03 
       1.491835465229e-01       3.404479507050e+03 
       1.541760469708e-01       3.156653436798e+03 
       1.593340535561e-01       2.931938930034e+03 
       1.646635702297e-01       2.742353941539e+03 
       1.701706958456e-01       2.592234432005e+03 
       1.758616357459e-01       2.477219114799e+03 
       1.817427160982e-01       2.385160250767e+03 
       1.878204015065e-01       2.300344095978e+03 
       1.941013164283e-01       2.205735251193e+03 
       2.005922709503e-01       2.090800123689e+03 
       2.073002914972e-01       1.956443119229e+03 
       2.142326570816e-01       1.814175474058e+03 
       2.213969417533e-01       1.679262276291e+03 
       2.288010639706e-01       1.563821645670e+03 
       2.364533437147e-01       1.472661837349e+03 
       2.443625682930e-01       1.401499233668e+03 
       2.525380679504e-01       1.338391965371e+03 
       2.609898026346e-01       1.270880913883e+03 
       2.697284615565e-01       1.193363034797e+03 
       2.787655775689e-01       1.109316209277e+03 
       2.881136588829e-01       1.028747412989e+03 
       2.977863412677e-01       9.604591072656e+02 
       3.077985646929e-01       9.050010021030e+02 
       3.181667794071e-01       8.561230777087e+02 
       3.289091877812e-01       8.061664603601e+02 
       3.400460299658e-01       7.523695172547e+02 
       3.515999236474e-01       6.989012056999e+02 
       3.635962711085e-01       6.510409332250e+02 
       3.760637506334e-01       6.101005870113e+02 
       3.890349143879e-01       5.721117571502e+02 
       4.025469216825e-01       5.337622573937e+02 
       4.166424456376e-01       4.956123541158e+02 
       4.313708035863e-01       4.604480369902e+02 
       4.467893782977e-01       4.287566694315e+02 
       4.629654199663e-01       3.987534583975e+02 
       4.799783501994e-01       3.692223923684e+02 
       4.979227319373e-01       3.412207631904e+02 
       5.169121270864e-01       3.154649258891e+02 
       5.370841404489e-01       2.908174504016e+02 
       5.586070464571e-01       2.670877041996e+02 
       5.816885094930e-01       2.447921420125e+02 
       6.065870144995e-01       2.235505279345e+02 
       6.336266468475e-01       2.031933170248e+02 
       6.632156059511e-01       1.838618838158e+02 
       6.958678639262e-01       1.653385283916e+02 
       7.322247985589e-01       1.476802066597e+02 
       7.730680195113e-01       1.308189086315e+02 
       8.193049553677e-01       1.148166681112e+02 
       8.718988016039e-01       9.974854227305e+01 
       9.317218031081e-01       8.576432882086e+01 
       9.993660908989e-01       7.304187206793e+01 
       1.075037110174e+00       6.172360213186e+01 
       1.158653485707e+00       5.186719666484e+01 
       1.250099157308e+00       4.342909105704e+01 
       1.349432401273e+00       3.627883612034e+01 
       1.456947457397e+00       3.025810487691e+01 
       1.573135111331e+00       2.520502004591e+01 
       1.698621895592e+00       2.097312177733e+01 
       1.834127512934e+00       1.743403665073e+01 
       1.980444934528e+00       1.447779328552e+01 
       2.138435191726e+00       1.201152790844e+01 
       2.309029199186e+00       9.956231009426e+00 
       2.493232377687e+00       8.245312960121e+00 
       2.692130395285e+00       6.822525422591e+00 
       2.906895534573e+00       5.640541116675e+00 
       3.138793597714e+00       4.659562940739e+00 
       3.389191366484e+00       3.846123999560e+00 
       3.659564657905e+00       3.172297231213e+00 
       3.951507022538e+00       2.614557937663e+00 
       4.266739136701e+00       2.153298732814e+00 
       4.607118943941e+00       1.772184398360e+00 
       4.974652605557e+00       1.457502440008e+00 
       5.371506324689e+00       1.197891044625e+00 
       5.800019113685e+00       9.838639546664e-01 
       6.262716579983e+00       8.075544441725e-01 
       6.762325811764e+00       6.624096714533e-01 
       7.301791451110e+00       5.430117511761e-01 
       7.884293049406e+00       4.448580372332e-01 
       8.513263807261e+00       3.642245294807e-01 
       9.192410809424e+00       2.980190581711e-01 
       9.925736873929e+00       2.437009034983e-01 
       1.071756414427e+01       1.991593659709e-01 
       1.157255956364e+01       1.626594177994e-01 
       1.249576238137e+01       1.327647501135e-01 
       1.349261385375e+01       1.082959965364e-01 
       1.456898931416e+01       8.827844831720e-02 
       1.573123280165e+01       7.191700711422e-02 
       1.698619445202e+01       5.854497631514e-02 
       1.834127087176e+01       4.762707599249e-02 
       1.980444873285e+01       3.871601572750e-02 
       2.138435184532e+01       3.144724808617e-02 
       2.309029198506e+01       2.552225937974e-02 
       2.493232377636e+01       2.069502101720e-02 
       2.692130395282e+01       1.676492281894e-02 
       2.906895534573e+01       1.356718986838e-02 
       3.138793597714e+01       1.096722160736e-02 
       3.389191366484e+01       8.854657962457e-03 
       3.659564657905e+01       7.139574695754e-03 
       3.951507022538e+01       5.748106718707e-03 
       4.266739136701e+01       4.620227461140e-03 
       4.607118943941e+01       3.706964027767e-03 
       4.974652605557e+01       2.967989096127e-03 
       5.371506324689e+01       2.371039308579e-03 
       5.800019113685e+01       1.889265418590e-03 
       6.262716579983e+01       1.500974703596e-03 
       6.762325811764e+01       1.188647767912e-03 
       7.301791451110e+01       9.377640314677e-04 
       7.884293049406e+01       7.367395762520e-04 
       8.513263807261e+01       5.760238433588e-04 
       9.192410809424e+01       4.478945832145e-04 
       9.925736873929e+01       3.460953836307e-04 
       1.071756414427e+02       2.655262447283e-04 
       1.157255956364e+02       2.020383898269e-04 
       1.249576238137e+02       1.522801497266e-04 
       1.349261385375e+02       1.135318114238e-04 
       1.456898931416e+02       8.357478884152e-05 
       1.573123280165e+02       6.062232538459e-05 
