# Matter power spectrum P(k) at redshift z=99
# for k=1.04775e-05 to 157.312 h/Mpc,
# number of wavenumbers equal to 257
#    1:k (h/Mpc)              2:P (Mpc/h)^3        
       1.047750691338e-05       7.261927095894e-03 
       1.131335172818e-05       7.820332151411e-03 
       1.221587619877e-05       8.421675383035e-03 
       1.319039970550e-05       9.069257738763e-03 
       1.424266598317e-05       9.766636451944e-03 
       1.537887697396e-05       1.051763973729e-02 
       1.660572938097e-05       1.132639250847e-02 
       1.793045413791e-05       1.219733201610e-02 
       1.936085902737e-05       1.313524187313e-02 
       2.090537469909e-05       1.414527085096e-02 
       2.257310435923e-05       1.523296544621e-02 
       2.437387742372e-05       1.640429654779e-02 
       2.631830745176e-05       1.766569603435e-02 
       2.841785470091e-05       1.902408711323e-02 
       3.068489367268e-05       2.048692967617e-02 
       3.313278604643e-05       2.206225467735e-02 
       3.577595943165e-05       2.375870884051e-02 
       3.862999240274e-05       2.558560670041e-02 
       4.171170631739e-05       2.755297672747e-02 
       4.503926445983e-05       2.967161933669e-02 
       4.863227909323e-05       3.195316455931e-02 
       5.251192705226e-05       3.441013466426e-02 
       5.670107455699e-05       3.705601742023e-02 
       6.122441198393e-05       3.990533413187e-02 
       6.610859938837e-05       4.297372242905e-02 
       7.138242363583e-05       4.627802055269e-02 
       7.707696806873e-05       4.983636160323e-02 
       8.322579570814e-05       5.366826787392e-02 
       8.986514707061e-05       5.779476320230e-02 
       9.703415376577e-05       6.223848222368e-02 
       1.047750691338e-04       6.702379825594e-02 
       1.131335172818e-04       7.217695031687e-02 
       1.221587619877e-04       7.772619031024e-02 
       1.319039970550e-04       8.370193380772e-02 
       1.424266598317e-04       9.013692507435e-02 
       1.537887697396e-04       9.706641131228e-02 
       1.660572938097e-04       1.045283343200e-01 
       1.793045413791e-04       1.125635329282e-01 
       1.936085902737e-04       1.212159592413e-01 
       2.090537469909e-04       1.305329107548e-01 
       2.257310435923e-04       1.405652819481e-01 
       2.437387742372e-04       1.513678275205e-01 
       2.631830745176e-04       1.629994475273e-01 
       2.841785470091e-04       1.755234890629e-01 
       3.068489367268e-04       1.890080645461e-01 
       3.313278604643e-04       2.035263977606e-01 
       3.577595943165e-04       2.191571778232e-01 
       3.862999240274e-04       2.359849423461e-01 
       4.171170631739e-04       2.541004713217e-01 
       4.503926445983e-04       2.736012061390e-01 
       4.863227909323e-04       2.945916774889e-01 
       5.251192705226e-04       3.171839508127e-01 
       5.670107455699e-04       3.414980769388e-01 
       6.122441198393e-04       3.676625416598e-01 
       6.610859938837e-04       3.958147273180e-01 
       7.138242363583e-04       4.261013332397e-01 
       7.707696806873e-04       4.586787881199e-01 
       8.322579570814e-04       4.937136113187e-01 
       8.986514707061e-04       5.313826962457e-01 
       9.703415376577e-04       5.718735177197e-01 
       1.047750691338e-03       6.153841926651e-01 
       1.131335172818e-03       6.621233623526e-01 
       1.221587619877e-03       7.123098744051e-01 
       1.319039970550e-03       7.661721264169e-01 
       1.424266598317e-03       8.239547181662e-01 
       1.537887697396e-03       8.859012283131e-01 
       1.660572938097e-03       9.522589495986e-01 
       1.793045413791e-03       1.023280284748e+00 
       1.936085902737e-03       1.099216542120e+00 
       2.090537469909e-03       1.180313285026e+00 
       2.257310435923e-03       1.266804486763e+00 
       2.437387742372e-03       1.358905328369e+00 
       2.631830745176e-03       1.456803285789e+00 
       2.841785470091e-03       1.560647662783e+00 
       3.068489367268e-03       1.670537010197e+00 
       3.313278604643e-03       1.786505039087e+00 
       3.577595943165e-03       1.908504409334e+00 
       3.862999240274e-03       2.036389467657e+00 
       4.171170631739e-03       2.169898251272e+00 
       4.503926445983e-03       2.308634489856e+00 
       4.863227909323e-03       2.452050671871e+00 
       5.251192705226e-03       2.599434677160e+00 
       5.670107455699e-03       2.749901121041e+00 
       6.122441198393e-03       2.902390050954e+00 
       6.610859938837e-03       3.055671259835e+00 
       7.138242363583e-03       3.208360109316e+00 
       7.707696806873e-03       3.358926551541e+00 
       8.322579570814e-03       3.505727870059e+00 
       8.986514707061e-03       3.647012296990e+00 
       9.703415376577e-03       3.780926333319e+00 
       1.047750691338e-02       3.905492816288e+00 
       1.131335172818e-02       4.018589749700e+00 
       1.221587619877e-02       4.117902787203e+00 
       1.319039970550e-02       4.200917567092e+00 
       1.424266598317e-02       4.264943557622e+00 
       1.537887697392e-02       4.307219485156e+00 
       1.660572938023e-02       4.325062097085e+00 
       1.793045412706e-02       4.316059980027e+00 
       1.936085890181e-02       4.278228325343e+00 
       2.090537352463e-02       4.210203860385e+00 
       2.257309535333e-02       4.111417973857e+00 
       2.437382002918e-02       3.982419964013e+00 
       2.631799944462e-02       3.825167475075e+00 
       2.841644545389e-02       3.643280690790e+00 
       3.067933355377e-02       3.442196879671e+00 
       3.311368470740e-02       3.229239529362e+00 
       3.571840443502e-02       3.013513694211e+00 
       3.847720348444e-02       2.805281715332e+00 
       4.135335538431e-02       2.614407041524e+00 
       4.429361667738e-02       2.448128030354e+00 
       4.724366439141e-02       2.309235969192e+00 
       5.016480835311e-02       2.196109992002e+00 
       5.303989620246e-02       2.104364151211e+00 
       5.586870669566e-02       2.028456396756e+00 
       5.866042680613e-02       1.963148620281e+00 
       6.142798932958e-02       1.903772571066e+00 
       6.418496440164e-02       1.846471665987e+00 
       6.694418833788e-02       1.788189573844e+00 
       6.971731106057e-02       1.726707465104e+00 
       7.251476155766e-02       1.660645914935e+00 
       7.534587671527e-02       1.589461078697e+00 
       7.821907666265e-02       1.513427717580e+00 
       8.114203772912e-02       1.433559764109e+00 
       8.412184535029e-02       1.351481570527e+00 
       8.716512279304e-02       1.269264661863e+00 
       9.027813695930e-02       1.189183763421e+00 
       9.346688431697e-02       1.113491438585e+00 
       9.673716028275e-02       1.044164749394e+00 
       1.000946150830e-01       9.826960852620e-01 
       1.035447986537e-01       9.299274253681e-01 
       1.070931966762e-01       8.859481132125e-01 
       1.107452594425e-01       8.500604121006e-01 
       1.145064249153e-01       8.207923215707e-01 
       1.183821370918e-01       7.960137542649e-01 
       1.223778605862e-01       7.731340442377e-01 
       1.264990921987e-01       7.494401056150e-01 
       1.307513701367e-01       7.225449093043e-01 
       1.351402814784e-01       6.908961109168e-01 
       1.396714684203e-01       6.541681820956e-01 
       1.443506338194e-01       6.134138089497e-01 
       1.491835465229e-01       5.708553202069e-01 
       1.541760469708e-01       5.293518987384e-01 
       1.593340535561e-01       4.916981937556e-01 
       1.646635702297e-01       4.599072575574e-01 
       1.701706958456e-01       4.347150167916e-01 
       1.758616357459e-01       4.153948038892e-01 
       1.817427160982e-01       3.999235187889e-01 
       1.878204015065e-01       3.856695029716e-01 
       1.941013164283e-01       3.697960149791e-01 
       2.005922709503e-01       3.505330808467e-01 
       2.073002914972e-01       3.280295805156e-01 
       2.142326570816e-01       3.042003750356e-01 
       2.213969417533e-01       2.815983956403e-01 
       2.288010639706e-01       2.622436020240e-01 
       2.364533437147e-01       2.469485537550e-01 
       2.443625682930e-01       2.349999414131e-01 
       2.525380679504e-01       2.244044813689e-01 
       2.609898026346e-01       2.130805443768e-01 
       2.697284615565e-01       2.000885662252e-01 
       2.787655775689e-01       1.860068761526e-01 
       2.881136588829e-01       1.725042230330e-01 
       2.977863412677e-01       1.610530848371e-01 
       3.077985646929e-01       1.517479656853e-01 
       3.181667794071e-01       1.435465513796e-01 
       3.289091877812e-01       1.351687734221e-01 
       3.400460299658e-01       1.261517448228e-01 
       3.515999236474e-01       1.171893761077e-01 
       3.635962711085e-01       1.091644355728e-01 
       3.760637506334e-01       1.022972649027e-01 
       3.890349143879e-01       9.592553037825e-02 
       4.025469216825e-01       8.949562337478e-02 
       4.166424456376e-01       8.309992484044e-02 
       4.313708035863e-01       7.720377085846e-02 
       4.467893782977e-01       7.188900175300e-02 
       4.629654199663e-01       6.685759139572e-02 
       4.799783501994e-01       6.190625730207e-02 
       4.979227319373e-01       5.721112402714e-02 
       5.169121270864e-01       5.289195802417e-02 
       5.370841404489e-01       4.875902943781e-02 
       5.586070464571e-01       4.478017736545e-02 
       5.816885094930e-01       4.104155657722e-02 
       6.065870144995e-01       3.747978072967e-02 
       6.336266468475e-01       3.406630737375e-02 
       6.632156059511e-01       3.082486123110e-02 
       6.958678639262e-01       2.771894755096e-02 
       7.322247985589e-01       2.475798939362e-02 
       7.730680195113e-01       2.193074157783e-02 
       8.193049553677e-01       1.924758920022e-02 
       8.718988016039e-01       1.672108432579e-02 
       9.317218031081e-01       1.437628844771e-02 
       9.993660908989e-01       1.224312061375e-02 
       1.075037110174e+00       1.034542783737e-02 
       1.158653485707e+00       8.692870237862e-03 
       1.250099157308e+00       7.278142683790e-03 
       1.349432401273e+00       6.079366662662e-03 
       1.456947457397e+00       5.070003128683e-03 
       1.573135111331e+00       4.222889838583e-03 
       1.698621895592e+00       3.513449961776e-03 
       1.834127512934e+00       2.920196283217e-03 
       1.980444934528e+00       2.424669073755e-03 
       2.138435191726e+00       2.011297522067e-03 
       2.309029199186e+00       1.666831738018e-03 
       2.493232377687e+00       1.380104701610e-03 
       2.692130395285e+00       1.141686728277e-03 
       2.906895534573e+00       9.436438072919e-04 
       3.138793597714e+00       7.792952980137e-04 
       3.389191366484e+00       6.430321868337e-04 
       3.659564657905e+00       5.301730810641e-04 
       3.951507022538e+00       4.367737860304e-04 
       4.266739136701e+00       3.595450156323e-04 
       4.607118943941e+00       2.957498402616e-04 
       4.974652605557e+00       2.430872591729e-04 
       5.371506324689e+00       1.996534546009e-04 
       5.800019113685e+00       1.638553481650e-04 
       6.262716579983e+00       1.343769043838e-04 
       6.762325811764e+00       1.101190677199e-04 
       7.301791451110e+00       9.017321364502e-05 
       7.884293049406e+00       7.378474717265e-05 
       8.513263807261e+00       6.032863016635e-05 
       9.192410809424e+00       4.928801101443e-05 
       9.925736873929e+00       4.023595093434e-05 
       1.071756414427e+01       3.281961921431e-05 
       1.157255956364e+01       2.674779026122e-05 
       1.249576238137e+01       2.178021471528e-05 
       1.349261385375e+01       1.771907800288e-05 
       1.456898931416e+01       1.440125346722e-05 
       1.573123280165e+01       1.169298919467e-05 
       1.698619445202e+01       9.483768285333e-06 
       1.834127087176e+01       7.683250885048e-06 
       1.980444873285e+01       6.217002880584e-06 
       2.138435184532e+01       5.023932177542e-06 
       2.309029198506e+01       4.054100316738e-06 
       2.493232377636e+01       3.266472278103e-06 
       2.692130395282e+01       2.627487575405e-06 
       2.906895534573e+01       2.109645031839e-06 
       3.138793597714e+01       1.690492053925e-06 
       3.389191366484e+01       1.351661209011e-06 
       3.659564657905e+01       1.078144240495e-06 
       3.951507022538e+01       8.576889120371e-07 
       4.266739136701e+01       6.803086177156e-07 
       4.607118943941e+01       5.378564468823e-07 
       4.974652605557e+01       4.236924155731e-07 
       5.371506324689e+01       3.324134231106e-07 
       5.800019113685e+01       2.596286383593e-07 
       6.262716579983e+01       2.017643279407e-07 
       6.762325811764e+01       1.559121238420e-07 
       7.301791451110e+01       1.197167627915e-07 
       7.884293049406e+01       9.126981382435e-08 
       8.513263807261e+01       6.902416671146e-08 
       9.192410809424e+01       5.172661246770e-08 
       9.925736873929e+01       3.836194885458e-08 
       1.071756414427e+02       2.811533415591e-08 
       1.157255956364e+02       2.032642148349e-08 
       1.249576238137e+02       1.446594703415e-08 
       1.349261385375e+02       1.010793738253e-08 
       1.456898931416e+02       6.912098713813e-09 
       1.573123280165e+02       4.606688803107e-09 
