# Matter power spectrum P(k) at redshift z=0
# for k=1.04775e-05 to 157.312 h/Mpc,
# number of wavenumbers equal to 257
#    1:k (h/Mpc)              2:P (Mpc/h)^3        
       1.047750691338e-05       5.020963906804e+01 
       1.131335172818e-05       5.407048937148e+01 
       1.221587619877e-05       5.822820724029e+01 
       1.319039970550e-05       6.270562047249e+01 
       1.424266598317e-05       6.752731476098e+01 
       1.537887697396e-05       7.271975715395e+01 
       1.660572938097e-05       7.831147101246e+01 
       1.793045413791e-05       8.433312302135e+01 
       1.936085902737e-05       9.081780130646e+01 
       2.090537469909e-05       9.780107449391e+01 
       2.257310435923e-05       1.053212938596e+02 
       2.437387742372e-05       1.134197268469e+02 
       2.631830745176e-05       1.221408285625e+02 
       2.841785470091e-05       1.315324590474e+02 
       3.068489367268e-05       1.416461671357e+02 
       3.313278604643e-05       1.525374478900e+02 
       3.577595943165e-05       1.642660517223e+02 
       3.862999240274e-05       1.768963429376e+02 
       4.171170631739e-05       1.904975997820e+02 
       4.503926445983e-05       2.051444243234e+02 
       4.863227909323e-05       2.209171412049e+02 
       5.251192705226e-05       2.379022266147e+02 
       5.670107455699e-05       2.561927841240e+02 
       6.122441198393e-05       2.758890479625e+02 
       6.610859938837e-05       2.970989213981e+02 
       7.138242363583e-05       3.199385559930e+02 
       7.707696806873e-05       3.445329727006e+02 
       8.322579570814e-05       3.710167324010e+02 
       8.986514707061e-05       3.995346444121e+02 
       9.703415376577e-05       4.302425389349e+02 
       1.047750691338e-04       4.633080773457e+02 
       1.131335172818e-04       4.989116271592e+02 
       1.221587619877e-04       5.372471938794e+02 
       1.319039970550e-04       5.785234116881e+02 
       1.424266598317e-04       6.229645933132e+02 
       1.537887697396e-04       6.708118487510e+02 
       1.660572938097e-04       7.223242657764e+02 
       1.793045413791e-04       7.777801571269e+02 
       1.936085902737e-04       8.374783638365e+02 
       2.090537469909e-04       9.017396276735e+02 
       2.257310435923e-04       9.709080297651e+02 
       2.437387742372e-04       1.045352453376e+03 
       2.631830745176e-04       1.125468127721e+03 
       2.841785470091e-04       1.211678185928e+03 
       3.068489367268e-04       1.304435256065e+03 
       3.313278604643e-04       1.404223062921e+03 
       3.577595943165e-04       1.511558029577e+03 
       3.862999240274e-04       1.626990852555e+03 
       4.171170631739e-04       1.751108045602e+03 
       4.503926445983e-04       1.884533404755e+03 
       4.863227909323e-04       2.027929406956e+03 
       5.251192705226e-04       2.181998483913e+03 
       5.670107455699e-04       2.347484146066e+03 
       6.122441198393e-04       2.525171925196e+03 
       6.610859938837e-04       2.715890054979e+03 
       7.138242363583e-04       2.920509779320e+03 
       7.707696806873e-04       3.139945208051e+03 
       8.322579570814e-04       3.375152477018e+03 
       8.986514707061e-04       3.627128020461e+03 
       9.703415376577e-04       3.896905669504e+03 
       1.047750691338e-03       4.185552452612e+03 
       1.131335172818e-03       4.494162775568e+03 
       1.221587619877e-03       4.823851150589e+03 
       1.319039970550e-03       5.175743278703e+03 
       1.424266598317e-03       5.551020298671e+03 
       1.537887697396e-03       5.950789185417e+03 
       1.660572938097e-03       6.376124150035e+03 
       1.793045413791e-03       6.828075236565e+03 
       1.936085902737e-03       7.307627051022e+03 
       2.090537469909e-03       7.815673959013e+03 
       2.257310435923e-03       8.352992922926e+03 
       2.437387742372e-03       8.920214306273e+03 
       2.631830745176e-03       9.517787166589e+03 
       2.841785470091e-03       1.014594130656e+04 
       3.068489367268e-03       1.080465136457e+04 
       3.313278604643e-03       1.149358239477e+04 
       3.577595943165e-03       1.221204586809e+04 
       3.862999240274e-03       1.295893666425e+04 
       4.171170631739e-03       1.373267338522e+04 
       4.503926445983e-03       1.453113499901e+04 
       4.863227909323e-03       1.535157115128e+04 
       5.251192705226e-03       1.619066155093e+04 
       5.670107455699e-03       1.704433881053e+04 
       6.122441198393e-03       1.790758124701e+04 
       6.610859938837e-03       1.877461996587e+04 
       7.138242363583e-03       1.963874650280e+04 
       7.707696806873e-03       2.049217384959e+04 
       8.322579570814e-03       2.132608014406e+04 
       8.986514707061e-03       2.213056718277e+04 
       9.703415376577e-03       2.289447297980e+04 
       1.047750691338e-02       2.360549526272e+04 
       1.131335172818e-02       2.425024124728e+04 
       1.221587619877e-02       2.481424704076e+04 
       1.319039970550e-02       2.528219963212e+04 
       1.424266598317e-02       2.563815124307e+04 
       1.537887697392e-02       2.586607607306e+04 
       1.660572938023e-02       2.595027116040e+04 
       1.793045412706e-02       2.587635566950e+04 
       1.936085890181e-02       2.563219768132e+04 
       2.090537352463e-02       2.520936126809e+04 
       2.257309535333e-02       2.460445427430e+04 
       2.437382002918e-02       2.382088393505e+04 
       2.631799944462e-02       2.287044853898e+04 
       2.841644545389e-02       2.177449055869e+04 
       3.067933355377e-02       2.056556793993e+04 
       3.311368470740e-02       1.928731510062e+04 
       3.571840443502e-02       1.799402040302e+04 
       3.847720348444e-02       1.674684682212e+04 
       4.135335538431e-02       1.560459670570e+04 
       4.429361667738e-02       1.461037758326e+04 
       4.724366439141e-02       1.378055802987e+04 
       5.016480835311e-02       1.310505387808e+04 
       5.303989620246e-02       1.255717964363e+04 
       5.586870669566e-02       1.210424204224e+04 
       5.866042680613e-02       1.171465214832e+04 
       6.142798932958e-02       1.136046964073e+04 
       6.418496440164e-02       1.101855013025e+04 
       6.694418833788e-02       1.067067208563e+04 
       6.971731106057e-02       1.030357514012e+04 
       7.251476155766e-02       9.909008082257e+03 
       7.534587671527e-02       9.483726892178e+03 
       7.821907666265e-02       9.029493231012e+03 
       8.114203772912e-02       8.552306977171e+03 
       8.412184535029e-02       8.061880877422e+03 
       8.716512279304e-02       7.570754479128e+03 
       9.027813695930e-02       7.092482358604e+03 
       9.346688431697e-02       6.640515579512e+03 
       9.673716028275e-02       6.226701797047e+03 
       1.000946150830e-01       5.859927004426e+03 
       1.035447986537e-01       5.545261774402e+03 
       1.070931966762e-01       5.283136521201e+03 
       1.107452594425e-01       5.069422510871e+03 
       1.145064249153e-01       4.895248823297e+03 
       1.183821370918e-01       4.747837868170e+03 
       1.223778605862e-01       4.611697941543e+03 
       1.264990921987e-01       4.470602440069e+03 
       1.307513701367e-01       4.310247412783e+03 
       1.351402814784e-01       4.121367605100e+03 
       1.396714684203e-01       3.902055540223e+03 
       1.443506338194e-01       3.658643196039e+03 
       1.491835465229e-01       3.404484264494e+03 
       1.541760469708e-01       3.156651115043e+03 
       1.593340535561e-01       2.931941823166e+03 
       1.646635702297e-01       2.742356796271e+03 
       1.701706958456e-01       2.592236021393e+03 
       1.758616357459e-01       2.477222090934e+03 
       1.817427160982e-01       2.385163259276e+03 
       1.878204015065e-01       2.300347155556e+03 
       1.941013164283e-01       2.205738334427e+03 
       2.005922709503e-01       2.090798539842e+03 
       2.073002914972e-01       1.956445834459e+03 
       2.142326570816e-01       1.814173679451e+03 
       2.213969417533e-01       1.679265154672e+03 
       2.288010639706e-01       1.563824638456e+03 
       2.364533437147e-01       1.472664893088e+03 
       2.443625682930e-01       1.401502284319e+03 
       2.525380679504e-01       1.338395047152e+03 
       2.609898026346e-01       1.270883992695e+03 
       2.697284615565e-01       1.193365870575e+03 
       2.787655775689e-01       1.109321074993e+03 
       2.881136588829e-01       1.028750452242e+03 
       2.977863412677e-01       9.604620918501e+02 
       3.077985646929e-01       9.050039990040e+02 
       3.181667794071e-01       8.561265868301e+02 
       3.289091877812e-01       8.061695131083e+02 
       3.400460299658e-01       7.523724359746e+02 
       3.515999236474e-01       6.989042635914e+02 
       3.635962711085e-01       6.510445121254e+02 
       3.760637506334e-01       6.101036449987e+02 
       3.890349143879e-01       5.721145891238e+02 
       4.025469216825e-01       5.337650519839e+02 
       4.166424456376e-01       4.956145377815e+02 
       4.313708035863e-01       4.604508434511e+02 
       4.467893782977e-01       4.287593873630e+02 
       4.629654199663e-01       3.987560927201e+02 
       4.799783501994e-01       3.692254338715e+02 
       4.979227319373e-01       3.412233732324e+02 
       5.169121270864e-01       3.154675918952e+02 
       5.370841404489e-01       2.908204870261e+02 
       5.586070464571e-01       2.670900869571e+02 
       5.816885094930e-01       2.447944700326e+02 
       6.065870144995e-01       2.235528650524e+02 
       6.336266468475e-01       2.031956295567e+02 
       6.632156059511e-01       1.838641403721e+02 
       6.958678639262e-01       1.653409539126e+02 
       7.322247985589e-01       1.476823735163e+02 
       7.730680195113e-01       1.308209648693e+02 
       8.193049553677e-01       1.148187459211e+02 
       8.718988016039e-01       9.975049670342e+01 
       9.317218031081e-01       8.576616075290e+01 
       9.993660908989e-01       7.304372756090e+01 
       1.075037110174e+00       6.172532981803e+01 
       1.158653485707e+00       5.186884441726e+01 
       1.250099157308e+00       4.343063041507e+01 
       1.349432401273e+00       3.628035015836e+01 
       1.456947457397e+00       3.025957726073e+01 
       1.573135111331e+00       2.520639386586e+01 
       1.698621895592e+00       2.097438167493e+01 
       1.834127512934e+00       1.743524412939e+01 
       1.980444934528e+00       1.447893240294e+01 
       2.138435191726e+00       1.201262169397e+01 
       2.309029199186e+00       9.957260034195e+00 
       2.493232377687e+00       8.246273054991e+00 
       2.692130395285e+00       6.823434019180e+00 
       2.906895534573e+00       5.641410931434e+00 
       3.138793597714e+00       4.660386456894e+00 
       3.389191366484e+00       3.846889202622e+00 
       3.659564657905e+00       3.173018335744e+00 
       3.951507022538e+00       2.615213367551e+00 
       4.266739136701e+00       2.153969447845e+00 
       4.607118943941e+00       1.772787943765e+00 
       4.974652605557e+00       1.458071101694e+00 
       5.371506324689e+00       1.198427088655e+00 
       5.800019113685e+00       9.843677693827e-01 
       6.262716579983e+00       8.080259818150e-01 
       6.762325811764e+00       6.628575152663e-01 
       7.301791451110e+00       5.434338942252e-01 
       7.884293049406e+00       4.452561998494e-01 
       8.513263807261e+00       3.645967934973e-01 
       9.192410809424e+00       2.983718895594e-01 
       9.925736873929e+00       2.440348941035e-01 
       1.071756414427e+01       1.994741920842e-01 
       1.157255956364e+01       1.629568259012e-01 
       1.249576238137e+01       1.330454876549e-01 
       1.349261385375e+01       1.085610568921e-01 
       1.456898931416e+01       8.853088558750e-02 
       1.573123280165e+01       7.215331854043e-02 
       1.698619445202e+01       5.876857384063e-02 
       1.834127087176e+01       4.783710357763e-02 
       1.980444873285e+01       3.891475750036e-02 
       2.138435184532e+01       3.163510696451e-02 
       2.309029198506e+01       2.569944322982e-02 
       2.493232377636e+01       2.086223313873e-02 
       2.692130395282e+01       1.692279990057e-02 
       2.906895534573e+01       1.371614660903e-02 
       3.138793597714e+01       1.110764550849e-02 
       3.389191366484e+01       8.986911151777e-03 
       3.659564657905e+01       7.263927047564e-03 
       3.951507022538e+01       5.865098726007e-03 
       4.266739136701e+01       4.730111383977e-03 
       4.607118943941e+01       3.809856547958e-03 
       4.974652605557e+01       3.064469191253e-03 
       5.371506324689e+01       2.461187691318e-03 
       5.800019113685e+01       1.973343682159e-03 
       6.262716579983e+01       1.579192618644e-03 
       6.762325811764e+01       1.261210684570e-03 
       7.301791451110e+01       1.004916114273e-03 
       7.884293049406e+01       7.986517654455e-04 
       8.513263807261e+01       6.329014650580e-04 
       9.192410809424e+01       4.999357155247e-04 
       9.925736873929e+01       3.934817589409e-04 
       1.071756414427e+02       3.084209409680e-04 
       1.157255956364e+02       2.406540265703e-04 
       1.249576238137e+02       1.867943885842e-04 
       1.349261385375e+02       1.441449819875e-04 
       1.456898931416e+02       1.104992833747e-04 
       1.573123280165e+02       8.407247563840e-05 
