# Matter power spectrum P(k) at redshift z=0
# for k=1.04775e-05 to 66.1767 h/Mpc,
# number of wavenumbers equal to 130
#    1:k (h/Mpc)              2:P (Mpc/h)^3        
       1.047750691046e-05       5.020964811458e+01 
       1.319039970183e-05       6.270561466759e+01 
       1.660572937635e-05       7.831147247914e+01 
       2.090537469327e-05       9.780108071240e+01 
       2.631830744443e-05       1.221408203813e+02 
       3.313278603720e-05       1.525374501933e+02 
       4.171170630578e-05       1.904975994066e+02 
       5.251192703764e-05       2.379022224126e+02 
       6.610859936996e-05       2.970989227888e+02 
       8.322579568497e-05       3.710167318951e+02 
       1.047750691046e-04       4.633080766744e+02 
       1.319039970183e-04       5.785234129365e+02 
       1.660572937635e-04       7.223242666092e+02 
       2.090537469327e-04       9.017396271824e+02 
       2.631830744443e-04       1.125468123761e+03 
       3.313278603720e-04       1.404223053681e+03 
       4.171170630578e-04       1.751108028781e+03 
       5.251192703764e-04       2.181998448130e+03 
       6.610859936996e-04       2.715889983591e+03 
       8.322579568497e-04       3.375152337088e+03 
       1.047750691046e-03       4.185552174241e+03 
       1.319039970183e-03       5.175742746167e+03 
       1.660572937635e-03       6.376123051034e+03 
       2.090537469327e-03       7.815671911650e+03 
       2.631830744443e-03       9.517783062536e+03 
       3.313278603720e-03       1.149357458493e+04 
       4.171170630578e-03       1.373265998210e+04 
       5.251192703764e-03       1.619063600468e+04 
       6.610859936996e-03       1.877460339289e+04 
       8.322579568497e-03       2.132606879633e+04 
       1.047750691046e-02       2.360547995360e+04 
       1.319039970183e-02       2.528218226555e+04 
       1.660572937633e-02       2.595028095919e+04 
       2.090537453514e-02       2.520934350243e+04 
       2.631818545635e-02       2.287032527739e+04 
       3.311571692125e-02       1.928618812747e+04 
       4.113809243311e-02       1.568417367198e+04 
       4.792590854610e-02       1.361047959966e+04 
       5.284436902701e-02       1.259111699829e+04 
       5.689644391095e-02       1.195536274131e+04 
       6.051252627066e-02       1.147523468400e+04 
       6.388413457411e-02       1.105561990193e+04 
       6.711249296401e-02       1.064873132846e+04 
       7.025823437965e-02       1.022900729538e+04 
       7.336115587705e-02       9.784215727748e+03 
       7.644928796912e-02       9.311348009734e+03 
       7.954353299775e-02       8.814201778333e+03 
       8.266024078725e-02       8.301818625278e+03 
       8.581273398637e-02       7.786635372987e+03 
       8.901225918437e-02       7.282869274412e+03 
       9.226860540985e-02       6.804841239129e+03 
       9.559052048996e-02       6.365274752350e+03 
       9.898599946599e-02       5.974040836573e+03 
       1.024624891378e-01       5.637000613058e+03 
       1.060270359164e-01       5.355434303532e+03 
       1.096863943056e-01       5.125876121817e+03 
       1.134471073830e-01       4.940124125263e+03 
       1.173155669539e-01       4.785785054167e+03 
       1.212980586983e-01       4.647533493421e+03 
       1.254007961065e-01       4.508717078502e+03 
       1.296299459934e-01       4.354127598826e+03 
       1.339916477160e-01       4.172795571566e+03 
       1.384920277736e-01       3.960741136806e+03 
       1.431372111762e-01       3.722230867836e+03 
       1.479333307714e-01       3.469134228232e+03 
       1.528865355934e-01       3.217907895677e+03 
       1.580029992204e-01       2.985849573052e+03 
       1.632889290723e-01       2.786532313889e+03 
       1.687505775527e-01       2.626389550168e+03 
       1.743942559171e-01       2.503324256998e+03 
       1.802263517371e-01       2.406875800728e+03 
       1.862533508214e-01       2.321791123509e+03 
       1.924818644494e-01       2.231086752578e+03 
       1.989186627765e-01       2.121719278397e+03 
       2.055707152847e-01       1.991569089107e+03 
       2.124452391818e-01       1.849859545300e+03 
       2.195497567139e-01       1.711713176820e+03 
       2.268921624510e-01       1.590526955887e+03 
       2.344808017550e-01       1.493202825466e+03 
       2.423245618548e-01       1.417838290694e+03 
       2.504329772620e-01       1.353998146783e+03 
       2.588163516754e-01       1.288460904405e+03 
       2.674858990930e-01       1.213467771490e+03 
       2.764539076010e-01       1.130225098512e+03 
       2.857339303080e-01       1.047635185796e+03 
       2.953410092148e-01       9.757212526866e+02 
       3.052919395542e-01       9.173495723986e+02 
       3.156055844677e-01       8.674368891655e+02 
       3.263032530092e-01       8.180694853972e+02 
       3.374091587054e-01       7.646895231250e+02 
       3.489509817175e-01       7.102200951602e+02 
       3.609605657343e-01       6.603387917891e+02 
       3.734747921333e-01       6.176383185001e+02 
       3.865366902904e-01       5.788672380615e+02 
       4.001968667448e-01       5.399495467665e+02 
       4.145153713076e-01       5.007165669032e+02 
       4.295641718077e-01       4.640662492095e+02 
       4.454304922144e-01       4.309809385329e+02 
       4.622214006969e-01       3.996907153560e+02 
       4.800702491654e-01       3.686715416844e+02 
       4.991459272112e-01       3.390627072352e+02 
       5.196665217302e-01       3.115770609744e+02 
       5.419201087032e-01       2.848453894758e+02 
       5.662975451962e-01       2.589350512589e+02 
       5.933463737275e-01       2.341595021109e+02 
       6.238638458458e-01       2.098485502107e+02 
       6.590669257916e-01       1.860597977877e+02 
       7.009246080454e-01       1.623607211981e+02 
       7.528593308799e-01       1.384652866228e+02 
       8.213469537518e-01       1.138488261175e+02 
       9.196980813302e-01       8.803717226422e+01 
       1.075112183810e+00       6.142815553356e+01 
       1.322697471132e+00       3.777565134833e+01 
       1.662328205042e+00       2.186334539172e+01 
       2.092692408506e+00       1.246469575664e+01 
       2.634543445090e+00       7.026455699321e+00 
       3.316693691389e+00       3.913235564359e+00 
       4.175469971226e+00       2.149218264496e+00 
       5.256605252960e+00       1.160227580947e+00 
       6.617673932723e+00       6.122746499325e-01 
       8.331157880872e+00       3.130959149403e-01 
       1.048830636590e+01       1.529916776792e-01 
       1.320399541071e+01       6.985397089283e-02 
       1.662284535976e+01       2.871587320005e-02 
       2.092692243973e+01       9.943074793471e-03 
       2.634543445002e+01       2.519268601583e-03 
       3.316693691389e+01       3.022240775548e-04 
       4.175469971226e+01       2.324095186581e-06 
       5.256605252960e+01       8.737275415666e-05 
       6.617673932723e+01       8.852186418492e-05 
