# Matter power spectrum P(k) at redshift z=0
# for k=1.04775e-05 to 66.1767 h/Mpc,
# number of wavenumbers equal to 130
#    1:k (h/Mpc)              2:P (Mpc/h)^3        
       1.047750691046e-05       5.020963917043e+01 
       1.319039970183e-05       6.270561467591e+01 
       1.660572937635e-05       7.831147247924e+01 
       2.090537469327e-05       9.780106760592e+01 
       2.631830744443e-05       1.221408203830e+02 
       3.313278603720e-05       1.525374501938e+02 
       4.171170630578e-05       1.904975994260e+02 
       5.251192703764e-05       2.379022223740e+02 
       6.610859936996e-05       2.970989227925e+02 
       8.322579568497e-05       3.710167325352e+02 
       1.047750691046e-04       4.633080766750e+02 
       1.319039970183e-04       5.785234139882e+02 
       1.660572937635e-04       7.223242666091e+02 
       2.090537469327e-04       9.017396271824e+02 
       2.631830744443e-04       1.125468123783e+03 
       3.313278603720e-04       1.404223053679e+03 
       4.171170630578e-04       1.751108028751e+03 
       5.251192703764e-04       2.181998448121e+03 
       6.610859936996e-04       2.715889983583e+03 
       8.322579568497e-04       3.375152336989e+03 
       1.047750691046e-03       4.185552173919e+03 
       1.319039970183e-03       5.175742741569e+03 
       1.660572937635e-03       6.376123048315e+03 
       2.090537469327e-03       7.815671866219e+03 
       2.631830744443e-03       9.517783037824e+03 
       3.313278603720e-03       1.149357451482e+04 
       4.171170630578e-03       1.373265986385e+04 
       5.251192703764e-03       1.619063542037e+04 
       6.610859936996e-03       1.877460256873e+04 
       8.322579568497e-03       2.132606860889e+04 
       1.047750691046e-02       2.360547011945e+04 
       1.319039970183e-02       2.528216453694e+04 
       1.660572937633e-02       2.595023020531e+04 
       2.090537453514e-02       2.520922886025e+04 
       2.631818545635e-02       2.287016113472e+04 
       3.311571692125e-02       1.928588537214e+04 
       4.113809243311e-02       1.568365395165e+04 
       4.792590854610e-02       1.360978735485e+04 
       5.284436902701e-02       1.259029522111e+04 
       5.689644391095e-02       1.195442936414e+04 
       6.051252627066e-02       1.147422046708e+04 
       6.388413457411e-02       1.105452294218e+04 
       6.711249296401e-02       1.064759620597e+04 
       7.025823437965e-02       1.022778677835e+04 
       7.336115587705e-02       9.782944823261e+03 
       7.644928796912e-02       9.310027495500e+03 
       7.954353299775e-02       8.812825650101e+03 
       8.266024078725e-02       8.300409918385e+03 
       8.581273398637e-02       7.785154088294e+03 
       8.901225918437e-02       7.281371067596e+03 
       9.226860540985e-02       6.803278670082e+03 
       9.559052048996e-02       6.363693925403e+03 
       9.898599946599e-02       5.972441019519e+03 
       1.024624891378e-01       5.635320372543e+03 
       1.060270359164e-01       5.353703650710e+03 
       1.096863943056e-01       5.124107172767e+03 
       1.134471073830e-01       4.938256959092e+03 
       1.173155669539e-01       4.783861334803e+03 
       1.212980586983e-01       4.645536461544e+03 
       1.254007961065e-01       4.506676349565e+03 
       1.296299459934e-01       4.352013414307e+03 
       1.339916477160e-01       4.170618013496e+03 
       1.384920277736e-01       3.958557473279e+03 
       1.431372111762e-01       3.720026538540e+03 
       1.479333307714e-01       3.466871539905e+03 
       1.528865355934e-01       3.215674591991e+03 
       1.580029992204e-01       2.983571236720e+03 
       1.632889290723e-01       2.784235213356e+03 
       1.687505775527e-01       2.624053181153e+03 
       1.743942559171e-01       2.500940166924e+03 
       1.802263517371e-01       2.404433685703e+03 
       1.862533508214e-01       2.319278595306e+03 
       1.924818644494e-01       2.228516717060e+03 
       1.989186627765e-01       2.119114298336e+03 
       2.055707152847e-01       1.988933963754e+03 
       2.124452391818e-01       1.847234825700e+03 
       2.195497567139e-01       1.709090484003e+03 
       2.268921624510e-01       1.587884818166e+03 
       2.344808017550e-01       1.490536680061e+03 
       2.423245618548e-01       1.415135379366e+03 
       2.504329772620e-01       1.351248159123e+03 
       2.588163516754e-01       1.285672908090e+03 
       2.674858990930e-01       1.210656717515e+03 
       2.764539076010e-01       1.127409633943e+03 
       2.857339303080e-01       1.044819616398e+03 
       2.953410092148e-01       9.728988667610e+02 
       3.052919395542e-01       9.145063492299e+02 
       3.156055844677e-01       8.645679986288e+02 
       3.263032530092e-01       8.151752954340e+02 
       3.374091587054e-01       7.617897150183e+02 
       3.489509817175e-01       7.073195827539e+02 
       3.609605657343e-01       6.574351913072e+02 
       3.734747921333e-01       6.147265757966e+02 
       3.865366902904e-01       5.759411812684e+02 
       4.001968667448e-01       5.370179425918e+02 
       4.145153713076e-01       4.977858326491e+02 
       4.295641718077e-01       4.611398336346e+02 
       4.454304922144e-01       4.280505185221e+02 
       4.622214006969e-01       3.967589993032e+02 
       4.800702491654e-01       3.657456261721e+02 
       4.991459272112e-01       3.361449030383e+02 
       5.196665217302e-01       3.086646569988e+02 
       5.419201087032e-01       2.819406609139e+02 
       5.662975451962e-01       2.560442650764e+02 
       5.933463737275e-01       2.312816297866e+02 
       6.238638458458e-01       2.069902168468e+02 
       6.590669257916e-01       1.832246685943e+02 
       7.009246080454e-01       1.595551869537e+02 
       7.528593308799e-01       1.356971096148e+02 
       8.213469537518e-01       1.111329461791e+02 
       9.196980813302e-01       8.539898921265e+01 
       1.075112183810e+00       5.891240647032e+01 
       1.322697471132e+00       3.544755008465e+01 
       1.662328205042e+00       1.976874399078e+01 
       2.092692408506e+00       1.062814822316e+01 
       2.634543445090e+00       5.464082908953e+00 
       3.316693691389e+00       2.633679391418e+00 
       4.175469971226e+00       1.151502597613e+00 
       5.256605252960e+00       4.308559516118e-01 
       6.617673932723e+00       1.226717012511e-01 
       8.331157880872e+00       1.924520818194e-02 
       1.048830636590e+01       8.714391135022e-05 
       1.320399541071e+01       2.601154326728e-03 
       1.662284535976e+01       3.539533377257e-03 
       2.092692243973e+01       1.487974491632e-03 
       2.634543445002e+01       1.453640138569e-04 
       3.316693691389e+01       1.081217187701e-05 
       4.175469971226e+01       2.285399394751e-05 
       5.256605252960e+01       9.081522261081e-07 
       6.617673932723e+01       3.555734258827e-07 
