# Matter power spectrum P(k) at redshift z=99
# for k=1.04775e-05 to 157.312 h/Mpc,
# number of wavenumbers equal to 257
#    1:k (h/Mpc)              2:P (Mpc/h)^3        
       1.047750691338e-05       7.261927095275e-03 
       1.131335172818e-05       7.820332150744e-03 
       1.221587619877e-05       8.421675382318e-03 
       1.319039970550e-05       9.069257737990e-03 
       1.424266598317e-05       9.766636451111e-03 
       1.537887697396e-05       1.051763973640e-02 
       1.660572938097e-05       1.132639250750e-02 
       1.793045413791e-05       1.219733201507e-02 
       1.936085902737e-05       1.313524187201e-02 
       2.090537469909e-05       1.414527084976e-02 
       2.257310435923e-05       1.523296544491e-02 
       2.437387742372e-05       1.640429654640e-02 
       2.631830745176e-05       1.766569603285e-02 
       2.841785470091e-05       1.902408711162e-02 
       3.068489367268e-05       2.048692967444e-02 
       3.313278604643e-05       2.206225467549e-02 
       3.577595943165e-05       2.375870883852e-02 
       3.862999240274e-05       2.558560669823e-02 
       4.171170631739e-05       2.755297672509e-02 
       4.503926445983e-05       2.967161933414e-02 
       4.863227909323e-05       3.195316455657e-02 
       5.251192705226e-05       3.441013466136e-02 
       5.670107455699e-05       3.705601741704e-02 
       6.122441198393e-05       3.990533412838e-02 
       6.610859938837e-05       4.297372242534e-02 
       7.138242363583e-05       4.627802054854e-02 
       7.707696806873e-05       4.983636159890e-02 
       8.322579570814e-05       5.366826786935e-02 
       8.986514707061e-05       5.779476319736e-02 
       9.703415376577e-05       6.223848221839e-02 
       1.047750691338e-04       6.702379825025e-02 
       1.131335172818e-04       7.217695031083e-02 
       1.221587619877e-04       7.772619030366e-02 
       1.319039970550e-04       8.370193380047e-02 
       1.424266598317e-04       9.013692506674e-02 
       1.537887697396e-04       9.706641130407e-02 
       1.660572938097e-04       1.045283343112e-01 
       1.793045413791e-04       1.125635329187e-01 
       1.936085902737e-04       1.212159592311e-01 
       2.090537469909e-04       1.305329107438e-01 
       2.257310435923e-04       1.405652819363e-01 
       2.437387742372e-04       1.513678275079e-01 
       2.631830745176e-04       1.629994475137e-01 
       2.841785470091e-04       1.755234890482e-01 
       3.068489367268e-04       1.890080645304e-01 
       3.313278604643e-04       2.035263977437e-01 
       3.577595943165e-04       2.191571778051e-01 
       3.862999240274e-04       2.359849423267e-01 
       4.171170631739e-04       2.541004713010e-01 
       4.503926445983e-04       2.736012061168e-01 
       4.863227909323e-04       2.945916774653e-01 
       5.251192705226e-04       3.171839507875e-01 
       5.670107455699e-04       3.414980769120e-01 
       6.122441198393e-04       3.676625416314e-01 
       6.610859938837e-04       3.958147272880e-01 
       7.138242363583e-04       4.261013332081e-01 
       7.707696806873e-04       4.586787880867e-01 
       8.322579570814e-04       4.937136112840e-01 
       8.986514707061e-04       5.313826962098e-01 
       9.703415376577e-04       5.718735176827e-01 
       1.047750691338e-03       6.153841926275e-01 
       1.131335172818e-03       6.621233623149e-01 
       1.221587619877e-03       7.123098743681e-01 
       1.319039970550e-03       7.661721263815e-01 
       1.424266598317e-03       8.239547181332e-01 
       1.537887697396e-03       8.859012282847e-01 
       1.660572938097e-03       9.522589495781e-01 
       1.793045413791e-03       1.023280284739e+00 
       1.936085902737e-03       1.099216542129e+00 
       2.090537469909e-03       1.180313285061e+00 
       2.257310435923e-03       1.266804486834e+00 
       2.437387742372e-03       1.358905328489e+00 
       2.631830745176e-03       1.456803285976e+00 
       2.841785470091e-03       1.560647663062e+00 
       3.068489367268e-03       1.670537010599e+00 
       3.313278604643e-03       1.786505039657e+00 
       3.577595943165e-03       1.908504410128e+00 
       3.862999240274e-03       2.036389468755e+00 
       4.171170631739e-03       2.169898252778e+00 
       4.503926445983e-03       2.308634491914e+00 
       4.863227909323e-03       2.452050674674e+00 
       5.251192705226e-03       2.599434680966e+00 
       5.670107455699e-03       2.749901126205e+00 
       6.122441198393e-03       2.902390057941e+00 
       6.610859938837e-03       3.055671269267e+00 
       7.138242363583e-03       3.208360122049e+00 
       7.707696806873e-03       3.358926650249e+00 
       8.322579570814e-03       3.505726888337e+00 
       8.986514707061e-03       3.647012435774e+00 
       9.703415376577e-03       3.780926176556e+00 
       1.047750691338e-02       3.905492876969e+00 
       1.131335172818e-02       4.018589821108e+00 
       1.221587619877e-02       4.117902882272e+00 
       1.319039970550e-02       4.200917691815e+00 
       1.424266598317e-02       4.264943727749e+00 
       1.537887697392e-02       4.307219655126e+00 
       1.660572938023e-02       4.325062438982e+00 
       1.793045412706e-02       4.316060367708e+00 
       1.936085890181e-02       4.278228900356e+00 
       2.090537352463e-02       4.210204432015e+00 
       2.257309535333e-02       4.111418695050e+00 
       2.437382002918e-02       3.982420867903e+00 
       2.631799944462e-02       3.825168597421e+00 
       2.841644545389e-02       3.643282129049e+00 
       3.067933355377e-02       3.442198566914e+00 
       3.311368470740e-02       3.229241478782e+00 
       3.571840443502e-02       3.013516129324e+00 
       3.847720348444e-02       2.805284585400e+00 
       4.135335538431e-02       2.614410415282e+00 
       4.429361667738e-02       2.448131857316e+00 
       4.724366439141e-02       2.309240296973e+00 
       5.016480835311e-02       2.196114807248e+00 
       5.303989620246e-02       2.104369434807e+00 
       5.586870669566e-02       2.028462108226e+00 
       5.866042680613e-02       1.963154771170e+00 
       6.142798932958e-02       1.903779129199e+00 
       6.418496440164e-02       1.846478598071e+00 
       6.694418833788e-02       1.788196844167e+00 
       6.971731106057e-02       1.726715034549e+00 
       7.251476155766e-02       1.660653751162e+00 
       7.534587671527e-02       1.589469007416e+00 
       7.821907666265e-02       1.513435983398e+00 
       8.114203772912e-02       1.433568202350e+00 
       8.412184535029e-02       1.351490127528e+00 
       8.716512279304e-02       1.269272484512e+00 
       9.027813695930e-02       1.189192639068e+00 
       9.346688431697e-02       1.113500451327e+00 
       9.673716028275e-02       1.044173921038e+00 
       1.000946150830e-01       9.827054390176e-01 
       1.035447986537e-01       9.299366983286e-01 
       1.070931966762e-01       8.859579240141e-01 
       1.107452594425e-01       8.500705010836e-01 
       1.145064249153e-01       8.208027039323e-01 
       1.183821370918e-01       7.960243432667e-01 
       1.223778605862e-01       7.731451499142e-01 
       1.264990921987e-01       7.494513038626e-01 
       1.307513701367e-01       7.225563531514e-01 
       1.351402814784e-01       6.909076847895e-01 
       1.396714684203e-01       6.541799428121e-01 
       1.443506338194e-01       6.134254518538e-01 
       1.491835465229e-01       5.708669135523e-01 
       1.541760469708e-01       5.293631995905e-01 
       1.593340535561e-01       4.917097500251e-01 
       1.646635702297e-01       4.599188505430e-01 
       1.701706958456e-01       4.347267856938e-01 
       1.758616357459e-01       4.154066748707e-01 
       1.817427160982e-01       3.999356687294e-01 
       1.878204015065e-01       3.856817355534e-01 
       1.941013164283e-01       3.698083607643e-01 
       2.005922709503e-01       3.505454139925e-01 
       2.073002914972e-01       3.280419738650e-01 
       2.142326570816e-01       3.042125978200e-01 
       2.213969417533e-01       2.816104685164e-01 
       2.288010639706e-01       2.622556384262e-01 
       2.364533437147e-01       2.469606387459e-01 
       2.443625682930e-01       2.350120641539e-01 
       2.525380679504e-01       2.244166732268e-01 
       2.609898026346e-01       2.130927582420e-01 
       2.697284615565e-01       2.001008370525e-01 
       2.787655775689e-01       1.860189468026e-01 
       2.881136588829e-01       1.725161151593e-01 
       2.977863412677e-01       1.610649069540e-01 
       3.077985646929e-01       1.517596875070e-01 
       3.181667794071e-01       1.435582867466e-01 
       3.289091877812e-01       1.351804236649e-01 
       3.400460299658e-01       1.261631820203e-01 
       3.515999236474e-01       1.172009156566e-01 
       3.635962711085e-01       1.091758368397e-01 
       3.760637506334e-01       1.023084283197e-01 
       3.890349143879e-01       9.593649227469e-02 
       4.025469216825e-01       8.950666707339e-02 
       4.166424456376e-01       8.311065892754e-02 
       4.313708035863e-01       7.721455293886e-02 
       4.467893782977e-01       7.189958518536e-02 
       4.629654199663e-01       6.686802743682e-02 
       4.799783501994e-01       6.191653294939e-02 
       4.979227319373e-01       5.722123403253e-02 
       5.169121270864e-01       5.290190503755e-02 
       5.370841404489e-01       4.876881152940e-02 
       5.586070464571e-01       4.478977524677e-02 
       5.816885094930e-01       4.105096796068e-02 
       6.065870144995e-01       3.748900114231e-02 
       6.336266468475e-01       3.407531727355e-02 
       6.632156059511e-01       3.083366115654e-02 
       6.958678639262e-01       2.772751301957e-02 
       7.322247985589e-01       2.476631706493e-02 
       7.730680195113e-01       2.193881155120e-02 
       8.193049553677e-01       1.925538270165e-02 
       8.718988016039e-01       1.672857815208e-02 
       9.317218031081e-01       1.438347451007e-02 
       9.993660908989e-01       1.224999080311e-02 
       1.075037110174e+00       1.035195792975e-02 
       1.158653485707e+00       8.699066718141e-03 
       1.250099157308e+00       7.284007474483e-03 
       1.349432401273e+00       6.084910697987e-03 
       1.456947457397e+00       5.075234100785e-03 
       1.573135111331e+00       4.227818809504e-03 
       1.698621895592e+00       3.518086079977e-03 
       1.834127512934e+00       2.924549421131e-03 
       1.980444934528e+00       2.428758010763e-03 
       2.138435191726e+00       2.015130916214e-03 
       2.309029199186e+00       1.670420754330e-03 
       2.493232377687e+00       1.383461524557e-03 
       2.692130395285e+00       1.144822135063e-03 
       2.906895534573e+00       9.465685254128e-04 
       3.138793597714e+00       7.820204686745e-04 
       3.389191366484e+00       6.455717158673e-04 
       3.659564657905e+00       5.325364096333e-04 
       3.951507022538e+00       4.389680181109e-04 
       4.266739136701e+00       3.615909704709e-04 
       4.607118943941e+00       2.976426390700e-04 
       4.974652605557e+00       2.448417037920e-04 
       5.371506324689e+00       2.012784769191e-04 
       5.800019113685e+00       1.653591628028e-04 
       6.262716579983e+00       1.357672921672e-04 
       6.762325811764e+00       1.114040197980e-04 
       7.301791451110e+00       9.135932201544e-05 
       7.884293049406e+00       7.487860346657e-05 
       8.513263807261e+00       6.133684467292e-05 
       9.192410809424e+00       5.021662284583e-05 
       9.925736873929e+00       4.109086479822e-05 
       1.071756414427e+01       3.360566283724e-05 
       1.157255956364e+01       2.747012071522e-05 
       1.249576238137e+01       2.244315752673e-05 
       1.349261385375e+01       1.832705109769e-05 
       1.456898931416e+01       1.495862139205e-05 
       1.573123280165e+01       1.220338354840e-05 
       1.698619445202e+01       9.950786387393e-06 
       1.834127087176e+01       8.110150498326e-06 
       1.980444873285e+01       6.606846085751e-06 
       2.138435184532e+01       5.379635072814e-06 
       2.309029198506e+01       4.378295625095e-06 
       2.493232377636e+01       3.561600157013e-06 
       2.692130395282e+01       2.895888725812e-06 
       2.906895534573e+01       2.353408812153e-06 
       3.138793597714e+01       1.911624820885e-06 
       3.389191366484e+01       1.551953546258e-06 
       3.659564657905e+01       1.259301634322e-06 
       3.951507022538e+01       1.021276039761e-06 
       4.266739136701e+01       8.277822337060e-07 
       4.607118943941e+01       6.705436970953e-07 
       4.974652605557e+01       5.428279110246e-07 
       5.371506324689e+01       4.391607352652e-07 
       5.800019113685e+01       3.550483051751e-07 
       6.262716579983e+01       2.868228264380e-07 
       6.762325811764e+01       2.315315365035e-07 
       7.301791451110e+01       1.867375776501e-07 
       7.884293049406e+01       1.504733767617e-07 
       8.513263807261e+01       1.211305601326e-07 
       9.192410809424e+01       9.740277160045e-08 
       9.925736873929e+01       7.823120851352e-08 
       1.071756414427e+02       6.275076540669e-08 
       1.157255956364e+02       5.026143923876e-08 
       1.249576238137e+02       4.019498294142e-08 
       1.349261385375e+02       3.208804184481e-08 
       1.456898931416e+02       2.556692801684e-08 
       1.573123280165e+02       2.032759661694e-08 
