# Matter power spectrum P(k) at redshift z=0
# for k=1.04775e-05 to 157.312 h/Mpc,
# number of wavenumbers equal to 257
#    1:k (h/Mpc)              2:P (Mpc/h)^3        
       1.047750691338e-05       5.020963906805e+01 
       1.131335172818e-05       5.407048937158e+01 
       1.221587619877e-05       5.822820724031e+01 
       1.319039970550e-05       6.270562047312e+01 
       1.424266598317e-05       6.752731476099e+01 
       1.537887697396e-05       7.271975715398e+01 
       1.660572938097e-05       7.831147101240e+01 
       1.793045413791e-05       8.433312302131e+01 
       1.936085902737e-05       9.081780130647e+01 
       2.090537469909e-05       9.780107457156e+01 
       2.257310435923e-05       1.053212938596e+02 
       2.437387742372e-05       1.134197268469e+02 
       2.631830745176e-05       1.221408285660e+02 
       2.841785470091e-05       1.315324590474e+02 
       3.068489367268e-05       1.416461671116e+02 
       3.313278604643e-05       1.525374479867e+02 
       3.577595943165e-05       1.642660516155e+02 
       3.862999240274e-05       1.768963429282e+02 
       4.171170631739e-05       1.904975997806e+02 
       4.503926445983e-05       2.051444243234e+02 
       4.863227909323e-05       2.209171412042e+02 
       5.251192705226e-05       2.379022266179e+02 
       5.670107455699e-05       2.561927841272e+02 
       6.122441198393e-05       2.758890478149e+02 
       6.610859938837e-05       2.970989214064e+02 
       7.138242363583e-05       3.199385559930e+02 
       7.707696806873e-05       3.445329727005e+02 
       8.322579570814e-05       3.710167323982e+02 
       8.986514707061e-05       3.995346444133e+02 
       9.703415376577e-05       4.302425389349e+02 
       1.047750691338e-04       4.633080773457e+02 
       1.131335172818e-04       4.989116273693e+02 
       1.221587619877e-04       5.372471938788e+02 
       1.319039970550e-04       5.785234116772e+02 
       1.424266598317e-04       6.229645933194e+02 
       1.537887697396e-04       6.708118487482e+02 
       1.660572938097e-04       7.223242657736e+02 
       1.793045413791e-04       7.777801571145e+02 
       1.936085902737e-04       8.374783638364e+02 
       2.090537469909e-04       9.017396277299e+02 
       2.257310435923e-04       9.709080297651e+02 
       2.437387742372e-04       1.045352453373e+03 
       2.631830745176e-04       1.125468127721e+03 
       2.841785470091e-04       1.211678185928e+03 
       3.068489367268e-04       1.304435256065e+03 
       3.313278604643e-04       1.404223062923e+03 
       3.577595943165e-04       1.511558029577e+03 
       3.862999240274e-04       1.626990852555e+03 
       4.171170631739e-04       1.751108045601e+03 
       4.503926445983e-04       1.884533404753e+03 
       4.863227909323e-04       2.027929406956e+03 
       5.251192705226e-04       2.181998483911e+03 
       5.670107455699e-04       2.347484146066e+03 
       6.122441198393e-04       2.525171925192e+03 
       6.610859938837e-04       2.715890054973e+03 
       7.138242363583e-04       2.920509779314e+03 
       7.707696806873e-04       3.139945208040e+03 
       8.322579570814e-04       3.375152477002e+03 
       8.986514707061e-04       3.627128020439e+03 
       9.703415376577e-04       3.896905669483e+03 
       1.047750691338e-03       4.185552452567e+03 
       1.131335172818e-03       4.494162775501e+03 
       1.221587619877e-03       4.823851150493e+03 
       1.319039970550e-03       5.175743278567e+03 
       1.424266598317e-03       5.551020298471e+03 
       1.537887697396e-03       5.950789185121e+03 
       1.660572938097e-03       6.376124149599e+03 
       1.793045413791e-03       6.828075235928e+03 
       1.936085902737e-03       7.307627050098e+03 
       2.090537469909e-03       7.815673957680e+03 
       2.257310435923e-03       8.352992921011e+03 
       2.437387742372e-03       8.920214303485e+03 
       2.631830745176e-03       9.517787162693e+03 
       2.841785470091e-03       1.014594130104e+04 
       3.068489367268e-03       1.080465135677e+04 
       3.313278604643e-03       1.149358238381e+04 
       3.577595943165e-03       1.221204585274e+04 
       3.862999240274e-03       1.295893664283e+04 
       4.171170631739e-03       1.373267335547e+04 
       4.503926445983e-03       1.453113495779e+04 
       4.863227909323e-03       1.535157109433e+04 
       5.251192705226e-03       1.619066147258e+04 
       5.670107455699e-03       1.704433870335e+04 
       6.122441198393e-03       1.790758138075e+04 
       6.610859938837e-03       1.877462058753e+04 
       7.138242363583e-03       1.963874672394e+04 
       7.707696806873e-03       2.049217370358e+04 
       8.322579570814e-03       2.132608680575e+04 
       8.986514707061e-03       2.213056897392e+04 
       9.703415376577e-03       2.289447074366e+04 
       1.047750691338e-02       2.360549416542e+04 
       1.131335172818e-02       2.425024018776e+04 
       1.221587619877e-02       2.481424503544e+04 
       1.319039970550e-02       2.528219712018e+04 
       1.424266598317e-02       2.563814755316e+04 
       1.537887697392e-02       2.586607130722e+04 
       1.660572938023e-02       2.595026557351e+04 
       1.793045412706e-02       2.587634781354e+04 
       1.936085890181e-02       2.563218749570e+04 
       2.090537352463e-02       2.520934936096e+04 
       2.257309535333e-02       2.460443881060e+04 
       2.437382002918e-02       2.382087312971e+04 
       2.631799944462e-02       2.287042461227e+04 
       2.841644545389e-02       2.177446704602e+04 
       3.067933355377e-02       2.056553200775e+04 
       3.311368470740e-02       1.928727107742e+04 
       3.571840443502e-02       1.799396861700e+04 
       3.847720348444e-02       1.674678570905e+04 
       4.135335538431e-02       1.560452500624e+04 
       4.429361667738e-02       1.461029608285e+04 
       4.724366439141e-02       1.378046589778e+04 
       5.016480835311e-02       1.310495138323e+04 
       5.303989620246e-02       1.255706706636e+04 
       5.586870669566e-02       1.210411631800e+04 
       5.866042680613e-02       1.171452109762e+04 
       6.142798932958e-02       1.136032978539e+04 
       6.418496440164e-02       1.101840244454e+04 
       6.694418833788e-02       1.067051663884e+04 
       6.971731106057e-02       1.030342040568e+04 
       7.251476155766e-02       9.908841434552e+03 
       7.534587671527e-02       9.483556743971e+03 
       7.821907666265e-02       9.029317458343e+03 
       8.114203772912e-02       8.552127439077e+03 
       8.412184535029e-02       8.061706075802e+03 
       8.716512279304e-02       7.570579690730e+03 
       9.027813695930e-02       7.092294609811e+03 
       9.346688431697e-02       6.640323960526e+03 
       9.673716028275e-02       6.226506753103e+03 
       1.000946150830e-01       5.859728143799e+03 
       1.035447986537e-01       5.545055488341e+03 
       1.070931966762e-01       5.282927985662e+03 
       1.107452594425e-01       5.069207991542e+03 
       1.145064249153e-01       4.895027893734e+03 
       1.183821370918e-01       4.747615032340e+03 
       1.223778605862e-01       4.611483437616e+03 
       1.264990921987e-01       4.470352151676e+03 
       1.307513701367e-01       4.310004700428e+03 
       1.351402814784e-01       4.121121566118e+03 
       1.396714684203e-01       3.901800143905e+03 
       1.443506338194e-01       3.658395682070e+03 
       1.491835465229e-01       3.404234252463e+03 
       1.541760469708e-01       3.156405667850e+03 
       1.593340535561e-01       2.931696137465e+03 
       1.646635702297e-01       2.742110338394e+03 
       1.701706958456e-01       2.591987172061e+03 
       1.758616357459e-01       2.476968667964e+03 
       1.817427160982e-01       2.384906413570e+03 
       1.878204015065e-01       2.300086849004e+03 
       1.941013164283e-01       2.205475495097e+03 
       2.005922709503e-01       2.090536210217e+03 
       2.073002914972e-01       1.956182817530e+03 
       2.142326570816e-01       1.813918731057e+03 
       2.213969417533e-01       1.679008014933e+03 
       2.288010639706e-01       1.563568744001e+03 
       2.364533437147e-01       1.472408477408e+03 
       2.443625682930e-01       1.401244607271e+03 
       2.525380679504e-01       1.338135817546e+03 
       2.609898026346e-01       1.270625406385e+03 
       2.697284615565e-01       1.193108028169e+03 
       2.787655775689e-01       1.109065350106e+03 
       2.881136588829e-01       1.028497923882e+03 
       2.977863412677e-01       9.602113833274e+02 
       3.077985646929e-01       9.047541408420e+02 
       3.181667794071e-01       8.558772025736e+02 
       3.289091877812e-01       8.059212224244e+02 
       3.400460299658e-01       7.521277774073e+02 
       3.515999236474e-01       6.986614811814e+02 
       3.635962711085e-01       6.508045558161e+02 
       3.760637506334e-01       6.098660054472e+02 
       3.890349143879e-01       5.718784252859e+02 
       4.025469216825e-01       5.335315568968e+02 
       4.166424456376e-01       4.953844002645e+02 
       4.313708035863e-01       4.602232497308e+02 
       4.467893782977e-01       4.285350201613e+02 
       4.629654199663e-01       3.985344054076e+02 
       4.799783501994e-01       3.690071024254e+02 
       4.979227319373e-01       3.410084236419e+02 
       5.169121270864e-01       3.152561774978e+02 
       5.370841404489e-01       2.906126464120e+02 
       5.586070464571e-01       2.668860411312e+02 
       5.816885094930e-01       2.445943804374e+02 
       6.065870144995e-01       2.233569062619e+02 
       6.336266468475e-01       2.030039755195e+02 
       6.632156059511e-01       1.836770850693e+02 
       6.958678639262e-01       1.651587889649e+02 
       7.322247985589e-01       1.475053353152e+02 
       7.730680195113e-01       1.306494313897e+02 
       8.193049553677e-01       1.146530702171e+02 
       8.718988016039e-01       9.959113873052e+01 
       9.317218031081e-01       8.561344782580e+01 
       9.993660908989e-01       7.289780642755e+01 
       1.075037110174e+00       6.158647831882e+01 
       1.158653485707e+00       5.173713137875e+01 
       1.250099157308e+00       4.330600052035e+01 
       1.349432401273e+00       3.616241755686e+01 
       1.456947457397e+00       3.014840758269e+01 
       1.573135111331e+00       2.510174051933e+01 
       1.698621895592e+00       2.087587414390e+01 
       1.834127512934e+00       1.734266348982e+01 
       1.980444934528e+00       1.439211136463e+01 
       2.138435191726e+00       1.193123271974e+01 
       2.309029199186e+00       9.881070200737e+00 
       2.493232377687e+00       8.175076465606e+00 
       2.692130395285e+00       6.756930977872e+00 
       2.906895534573e+00       5.579391733908e+00 
       3.138793597714e+00       4.602567834568e+00 
       3.389191366484e+00       3.793119469041e+00 
       3.659564657905e+00       3.122999757531e+00 
       3.951507022538e+00       2.568793752475e+00 
       4.266739136701e+00       2.110842462130e+00 
       4.607118943941e+00       1.732837412970e+00 
       4.974652605557e+00       1.421075253390e+00 
       5.371506324689e+00       1.164197968853e+00 
       5.800019113685e+00       9.527405864047e-01 
       6.262716579983e+00       7.788371646673e-01 
       6.762325811764e+00       6.359361961039e-01 
       7.301791451110e+00       5.186326657122e-01 
       7.884293049406e+00       4.224320528368e-01 
       8.513263807261e+00       3.436165580566e-01 
       9.192410809424e+00       2.791078765277e-01 
       9.925736873929e+00       2.263672103301e-01 
       1.071756414427e+01       1.832900299139e-01 
       1.157255956364e+01       1.481499979996e-01 
       1.249576238137e+01       1.195188697788e-01 
       1.349261385375e+01       9.622084401195e-02 
       1.456898931416e+01       7.728876960992e-02 
       1.573123280165e+01       6.192836840620e-02 
       1.698619445202e+01       4.948530953159e-02 
       1.834127087176e+01       3.942377690269e-02 
       1.980444873285e+01       3.130433992917e-02 
       2.138435184532e+01       2.476549573371e-02 
       2.309029198506e+01       1.951286359034e-02 
       2.493232377636e+01       1.530455034778e-02 
       2.692130395282e+01       1.194275468685e-02 
       2.906895534573e+01       9.267131336551e-03 
       3.138793597714e+01       7.145146047654e-03 
       3.389191366484e+01       5.469840012569e-03 
       3.659564657905e+01       4.153596818970e-03 
       3.951507022538e+01       3.125453168990e-03 
       4.266739136701e+01       2.327524129863e-03 
       4.607118943941e+01       1.712904034337e-03 
       4.974652605557e+01       1.243623335855e-03 
       5.371506324689e+01       8.889023026750e-04 
       5.800019113685e+01       6.238755677482e-04 
       6.262716579983e+01       4.285881864125e-04 
       6.762325811764e+01       2.870576580340e-04 
       7.301791451110e+01       1.864338824910e-04 
       7.884293049406e+01       1.166035043891e-04 
       8.513263807261e+01       6.952820113940e-05 
       9.192410809424e+01       3.893536467986e-05 
       9.925736873929e+01       1.999166127756e-05 
       1.071756414427e+02       9.015661094331e-06 
       1.157255956364e+02       3.259701023143e-06 
       1.249576238137e+02       7.265158439138e-07 
       1.349261385375e+02       1.355183568583e-08 
       1.456898931416e+02       1.830299617356e-07 
       1.573123280165e+02       6.491300762920e-07 
