# Matter power spectrum P(k) at redshift z=0
# for k=1.04775e-05 to 157.312 h/Mpc,
# number of wavenumbers equal to 257
#    1:k (h/Mpc)              2:P (Mpc/h)^3        
       1.047750691338e-05       5.020963906895e+01 
       1.131335172818e-05       5.407048937442e+01 
       1.221587619877e-05       5.822820724079e+01 
       1.319039970550e-05       6.270562049129e+01 
       1.424266598317e-05       6.752731476127e+01 
       1.537887697396e-05       7.271975715472e+01 
       1.660572938097e-05       7.831147101077e+01 
       1.793045413791e-05       8.433312302024e+01 
       1.936085902737e-05       9.081780130676e+01 
       2.090537469909e-05       9.780107478118e+01 
       2.257310435923e-05       1.053212938602e+02 
       2.437387742372e-05       1.134197268479e+02 
       2.631830745176e-05       1.221408287214e+02 
       2.841785470091e-05       1.315324590479e+02 
       3.068489367268e-05       1.416461666446e+02 
       3.313278604643e-05       1.525374450918e+02 
       3.577595943165e-05       1.642660507826e+02 
       3.862999240274e-05       1.768963425120e+02 
       4.171170631739e-05       1.904975997323e+02 
       4.503926445983e-05       2.051444243225e+02 
       4.863227909323e-05       2.209171408103e+02 
       5.251192705226e-05       2.379022267785e+02 
       5.670107455699e-05       2.561927841719e+02 
       6.122441198393e-05       2.758890477274e+02 
       6.610859938837e-05       2.970989216575e+02 
       7.138242363583e-05       3.199385559933e+02 
       7.707696806873e-05       3.445329726976e+02 
       8.322579570814e-05       3.710167324630e+02 
       8.986514707061e-05       3.995346444458e+02 
       9.703415376577e-05       4.302425389372e+02 
       1.047750691338e-04       4.633080773457e+02 
       1.131335172818e-04       4.989116272536e+02 
       1.221587619877e-04       5.372471938660e+02 
       1.319039970550e-04       5.785234110085e+02 
       1.424266598317e-04       6.229645931975e+02 
       1.537887697396e-04       6.708118484804e+02 
       1.660572938097e-04       7.223242657034e+02 
       1.793045413791e-04       7.777801567708e+02 
       1.936085902737e-04       8.374783640790e+02 
       2.090537469909e-04       9.017396274913e+02 
       2.257310435923e-04       9.709080297642e+02 
       2.437387742372e-04       1.045352453289e+03 
       2.631830745176e-04       1.125468127196e+03 
       2.841785470091e-04       1.211678185923e+03 
       3.068489367268e-04       1.304435256065e+03 
       3.313278604643e-04       1.404223062806e+03 
       3.577595943165e-04       1.511558029570e+03 
       3.862999240274e-04       1.626990852542e+03 
       4.171170631739e-04       1.751108045567e+03 
       4.503926445983e-04       1.884533404428e+03 
       4.863227909323e-04       2.027929406966e+03 
       5.251192705226e-04       2.181998483855e+03 
       5.670107455699e-04       2.347484146059e+03 
       6.122441198393e-04       2.525171925086e+03 
       6.610859938837e-04       2.715890054818e+03 
       7.138242363583e-04       2.920509778679e+03 
       7.707696806873e-04       3.139945207726e+03 
       8.322579570814e-04       3.375152476519e+03 
       8.986514707061e-04       3.627128019788e+03 
       9.703415376577e-04       3.896905668949e+03 
       1.047750691338e-03       4.185552451275e+03 
       1.131335172818e-03       4.494162773552e+03 
       1.221587619877e-03       4.823851147711e+03 
       1.319039970550e-03       5.175743274602e+03 
       1.424266598317e-03       5.551020292636e+03 
       1.537887697396e-03       5.950789176472e+03 
       1.660572938097e-03       6.376124136874e+03 
       1.793045413791e-03       6.828075217324e+03 
       1.936085902737e-03       7.307627023084e+03 
       2.090537469909e-03       7.815673910324e+03 
       2.257310435923e-03       8.352992864966e+03 
       2.437387742372e-03       8.920214223479e+03 
       2.631830745176e-03       9.517787048644e+03 
       2.841785470091e-03       1.014594113925e+04 
       3.068489367268e-03       1.080465112839e+04 
       3.313278604643e-03       1.149358202437e+04 
       3.577595943165e-03       1.221204545551e+04 
       3.862999240274e-03       1.295893720520e+04 
       4.171170631739e-03       1.373267411560e+04 
       4.503926445983e-03       1.453113443932e+04 
       4.863227909323e-03       1.535156967582e+04 
       5.251192705226e-03       1.619065962225e+04 
       5.670107455699e-03       1.704433468102e+04 
       6.122441198393e-03       1.790757775709e+04 
       6.610859938837e-03       1.877461814712e+04 
       7.138242363583e-03       1.963873593357e+04 
       7.707696806873e-03       2.049216221351e+04 
       8.322579570814e-03       2.132607279013e+04 
       8.986514707061e-03       2.213054911935e+04 
       9.703415376577e-03       2.289444525318e+04 
       1.047750691338e-02       2.360545978597e+04 
       1.131335172818e-02       2.425019374657e+04 
       1.221587619877e-02       2.481418508698e+04 
       1.319039970550e-02       2.528211837504e+04 
       1.424266598317e-02       2.563804516878e+04 
       1.537887697392e-02       2.586593781386e+04 
       1.660572938023e-02       2.595009326200e+04 
       1.793045412706e-02       2.587612568782e+04 
       1.936085890181e-02       2.563190633288e+04 
       2.090537352463e-02       2.520898831897e+04 
       2.257309535333e-02       2.460398226171e+04 
       2.437382002918e-02       2.382030073915e+04 
       2.631799944462e-02       2.286971418997e+04 
       2.841644545389e-02       2.177362196668e+04 
       3.067933355377e-02       2.056446300384e+04 
       3.311368470740e-02       1.928596856733e+04 
       3.571840443502e-02       1.799238428672e+04 
       3.847720348444e-02       1.674495447927e+04 
       4.135335538431e-02       1.560243208206e+04 
       4.429361667738e-02       1.460787336788e+04 
       4.724366439141e-02       1.377767384652e+04 
       5.016480835311e-02       1.310188458064e+04 
       5.303989620246e-02       1.255370045413e+04 
       5.586870669566e-02       1.210045855704e+04 
       5.866042680613e-02       1.171058651719e+04 
       6.142798932958e-02       1.135613166082e+04 
       6.418496440164e-02       1.101398683442e+04 
       6.694418833788e-02       1.066586542101e+04 
       6.971731106057e-02       1.029857188245e+04 
       7.251476155766e-02       9.903813747598e+03 
       7.534587671527e-02       9.478378566889e+03 
       7.821907666265e-02       9.024009962688e+03 
       8.114203772912e-02       8.546688019691e+03 
       8.412184535029e-02       8.056169644318e+03 
       8.716512279304e-02       7.564933121955e+03 
       9.027813695930e-02       7.086559170649e+03 
       9.346688431697e-02       6.634489600319e+03 
       9.673716028275e-02       6.220563972263e+03 
       1.000946150830e-01       5.853656975237e+03 
       1.035447986537e-01       5.538831692305e+03 
       1.070931966762e-01       5.276577084504e+03 
       1.107452594425e-01       5.062626275776e+03 
       1.145064249153e-01       4.888253542438e+03 
       1.183821370918e-01       4.740626116945e+03 
       1.223778605862e-01       4.604300168768e+03 
       1.264990921987e-01       4.463011897128e+03 
       1.307513701367e-01       4.302498245092e+03 
       1.351402814784e-01       4.113508096289e+03 
       1.396714684203e-01       3.894136287236e+03 
       1.443506338194e-01       3.650709298246e+03 
       1.491835465229e-01       3.396556640312e+03 
       1.541760469708e-01       3.148742620353e+03 
       1.593340535561e-01       2.924020449418e+03 
       1.646635702297e-01       2.734394489281e+03 
       1.701706958456e-01       2.584185477412e+03 
       1.758616357459e-01       2.469038004531e+03 
       1.817427160982e-01       2.376834635129e+03 
       1.878204015065e-01       2.291874839307e+03 
       1.941013164283e-01       2.197172028750e+03 
       2.005922709503e-01       2.082188007236e+03 
       2.073002914972e-01       1.947857518145e+03 
       2.142326570816e-01       1.805648812932e+03 
       2.213969417533e-01       1.670790584060e+03 
       2.288010639706e-01       1.555376091440e+03 
       2.364533437147e-01       1.464190077011e+03 
       2.443625682930e-01       1.392951845479e+03 
       2.525380679504e-01       1.329782457872e+03 
       2.609898026346e-01       1.262238911357e+03 
       2.697284615565e-01       1.184744416572e+03 
       2.787655775689e-01       1.100768192406e+03 
       2.881136588829e-01       1.020270386637e+03 
       2.977863412677e-01       9.520229100538e+02 
       3.077985646929e-01       8.965669781929e+02 
       3.181667794071e-01       8.476816197421e+02 
       3.289091877812e-01       7.977429092349e+02 
       3.400460299658e-01       7.440081068582e+02 
       3.515999236474e-01       6.906167946072e+02 
       3.635962711085e-01       6.428249725007e+02 
       3.760637506334e-01       6.019203637846e+02 
       3.890349143879e-01       5.639726103637e+02 
       4.025469216825e-01       5.256865713457e+02 
       4.166424456376e-01       4.876209114873e+02 
       4.313708035863e-01       4.525356199909e+02 
       4.467893782977e-01       4.209127264752e+02 
       4.629654199663e-01       3.909827635873e+02 
       4.799783501994e-01       3.615424018638e+02 
       4.979227319373e-01       3.336343391736e+02 
       5.169121270864e-01       3.079676612970e+02 
       5.370841404489e-01       2.834182122171e+02 
       5.586070464571e-01       2.597968232903e+02 
       5.816885094930e-01       2.376099225002e+02 
       6.065870144995e-01       2.164851324267e+02 
       6.336266468475e-01       1.962542147352e+02 
       6.632156059511e-01       1.770556071264e+02 
       6.958678639262e-01       1.586752099300e+02 
       7.322247985589e-01       1.411701782176e+02 
       7.730680195113e-01       1.244754928778e+02 
       8.193049553677e-01       1.086536403045e+02 
       8.718988016039e-01       9.378080707891e+01 
       9.317218031081e-01       8.000689505539e+01 
       9.993660908989e-01       6.750724567858e+01 
       1.075037110174e+00       5.642223717261e+01 
       1.158653485707e+00       4.680535306012e+01 
       1.250099157308e+00       3.860906353800e+01 
       1.349432401273e+00       3.170147616148e+01 
       1.456947457397e+00       2.592172980172e+01 
       1.573135111331e+00       2.110800518136e+01 
       1.698621895592e+00       1.711231087894e+01 
       1.834127512934e+00       1.380616864376e+01 
       1.980444934528e+00       1.107911976076e+01 
       2.138435191726e+00       8.837831252173e+00 
       2.309029199186e+00       7.002904228028e+00 
       2.493232377687e+00       5.507338498435e+00 
       2.692130395285e+00       4.294460368641e+00 
       2.906895534573e+00       3.316493936457e+00 
       3.138793597714e+00       2.533092219726e+00 
       3.389191366484e+00       1.910364696049e+00 
       3.659564657905e+00       1.419804192671e+00 
       3.951507022538e+00       1.037397779065e+00 
       4.266739136701e+00       7.429714049805e-01 
       4.607118943941e+00       5.196656913355e-01 
       4.974652605557e+00       3.532510905596e-01 
       5.371506324689e+00       2.319100344087e-01 
       5.800019113685e+00       1.457377967392e-01 
       6.262716579983e+00       8.656586057493e-02 
       6.762325811764e+00       4.763529494870e-02 
       7.301791451110e+00       2.348019081274e-02 
       7.884293049406e+00       9.701579139560e-03 
       8.513263807261e+00       2.850909976973e-03 
       9.192410809424e+00       2.972432401977e-04 
       9.925736873929e+00       1.140658081413e-04 
       1.071756414427e+01       9.688552137222e-04 
       1.157255956364e+01       2.015586743427e-03 
       1.249576238137e+01       2.792093955369e-03 
       1.349261385375e+01       3.118802550896e-03 
       1.456898931416e+01       3.006022119970e-03 
       1.573123280165e+01       2.572519721171e-03 
       1.698619445202e+01       1.973051474366e-03 
       1.834127087176e+01       1.354230196817e-03 
       1.980444873285e+01       8.208951148855e-04 
       2.138435184532e+01       4.269142539790e-04 
       2.309029198506e+01       1.791205110555e-04 
       2.493232377636e+01       5.213201666824e-05 
       2.692130395282e+01       5.806333780393e-06 
       2.906895534573e+01       9.444024626241e-07 
       3.138793597714e+01       9.003755195156e-06 
       3.389191366484e+01       1.495002459227e-05 
       3.659564657905e+01       1.475274588968e-05 
       3.951507022538e+01       1.044769253981e-05 
       4.266739136701e+01       5.466035835232e-06 
       4.607118943941e+01       1.984821890666e-06 
       4.974652605557e+01       3.850435502912e-07 
       5.371506324689e+01       4.379295991846e-09 
       5.800019113685e+01       5.658425459752e-08 
       6.262716579983e+01       1.113013527416e-07 
       6.762325811764e+01       8.571264182360e-08 
       7.301791451110e+01       3.666226674219e-08 
       7.884293049406e+01       7.642127597632e-09 
       8.513263807261e+01       2.395741116216e-10 
       9.192410809424e+01       3.323143704863e-10 
       9.925736873929e+01       5.056429686948e-10 
       1.071756414427e+02       1.583104912765e-10 
       1.157255956364e+02       1.219755361959e-12 
       1.249576238137e+02       3.049177539167e-11 
       1.349261385375e+02       4.974497808300e-11 
       1.456898931416e+02       3.260044875312e-11 
       1.573123280165e+02       1.567161200769e-11 
