# Matter power spectrum P(k) at redshift z=0
# for k=1.04775e-05 to 157.312 h/Mpc,
# number of wavenumbers equal to 257
#    1:k (h/Mpc)              2:P (Mpc/h)^3        
       1.047750691338e-05       5.020963906808e+01 
       1.131335172818e-05       5.407048937193e+01 
       1.221587619877e-05       5.822820724037e+01 
       1.319039970550e-05       6.270562047535e+01 
       1.424266598317e-05       6.752731476103e+01 
       1.537887697396e-05       7.271975715407e+01 
       1.660572938097e-05       7.831147101222e+01 
       1.793045413791e-05       8.433312302118e+01 
       1.936085902737e-05       9.081780130651e+01 
       2.090537469909e-05       9.780107406294e+01 
       2.257310435923e-05       1.053212938597e+02 
       2.437387742372e-05       1.134197268470e+02 
       2.631830745176e-05       1.221408285815e+02 
       2.841785470091e-05       1.315324590475e+02 
       3.068489367268e-05       1.416461664280e+02 
       3.313278604643e-05       1.525374477164e+02 
       3.577595943165e-05       1.642660519132e+02 
       3.862999240274e-05       1.768963429023e+02 
       4.171170631739e-05       1.904975997753e+02 
       4.503926445983e-05       2.051444243233e+02 
       4.863227909323e-05       2.209171412018e+02 
       5.251192705226e-05       2.379022266318e+02 
       5.670107455699e-05       2.561927841742e+02 
       6.122441198393e-05       2.758890478478e+02 
       6.610859938837e-05       2.970989214424e+02 
       7.138242363583e-05       3.199385559931e+02 
       7.707696806873e-05       3.445329727001e+02 
       8.322579570814e-05       3.710167323879e+02 
       8.986514707061e-05       3.995346444175e+02 
       9.703415376577e-05       4.302425389352e+02 
       1.047750691338e-04       4.633080773458e+02 
       1.131335172818e-04       4.989116270771e+02 
       1.221587619877e-04       5.372471938768e+02 
       1.319039970550e-04       5.785234116764e+02 
       1.424266598317e-04       6.229645933387e+02 
       1.537887697396e-04       6.708118487363e+02 
       1.660572938097e-04       7.223242657640e+02 
       1.793045413791e-04       7.777801570705e+02 
       1.936085902737e-04       8.374783640705e+02 
       2.090537469909e-04       9.017396293898e+02 
       2.257310435923e-04       9.709080297649e+02 
       2.437387742372e-04       1.045352453364e+03 
       2.631830745176e-04       1.125468127720e+03 
       2.841785470091e-04       1.211678185927e+03 
       3.068489367268e-04       1.304435256065e+03 
       3.313278604643e-04       1.404223062926e+03 
       3.577595943165e-04       1.511558029576e+03 
       3.862999240274e-04       1.626990852553e+03 
       4.171170631739e-04       1.751108045596e+03 
       4.503926445983e-04       1.884533404744e+03 
       4.863227909323e-04       2.027929406957e+03 
       5.251192705226e-04       2.181998483904e+03 
       5.670107455699e-04       2.347484146064e+03 
       6.122441198393e-04       2.525171925179e+03 
       6.610859938837e-04       2.715890054954e+03 
       7.138242363583e-04       2.920509779293e+03 
       7.707696806873e-04       3.139945208002e+03 
       8.322579570814e-04       3.375152476943e+03 
       8.986514707061e-04       3.627128020360e+03 
       9.703415376577e-04       3.896905669413e+03 
       1.047750691338e-03       4.185552452412e+03 
       1.131335172818e-03       4.494162775265e+03 
       1.221587619877e-03       4.823851150156e+03 
       1.319039970550e-03       5.175743278086e+03 
       1.424266598317e-03       5.551020297764e+03 
       1.537887697396e-03       5.950789184073e+03 
       1.660572938097e-03       6.376124148058e+03 
       1.793045413791e-03       6.828075233677e+03 
       1.936085902737e-03       7.307627046830e+03 
       2.090537469909e-03       7.815673952967e+03 
       2.257310435923e-03       8.352992914237e+03 
       2.437387742372e-03       8.920214293630e+03 
       2.631830745176e-03       9.517787148920e+03 
       2.841785470091e-03       1.014594128151e+04 
       3.068489367268e-03       1.080465132922e+04 
       3.313278604643e-03       1.149358234506e+04 
       3.577595943165e-03       1.221204579848e+04 
       3.862999240274e-03       1.295893656710e+04 
       4.171170631739e-03       1.373267325029e+04 
       4.503926445983e-03       1.453113487254e+04 
       4.863227909323e-03       1.535157092031e+04 
       5.251192705226e-03       1.619066157768e+04 
       5.670107455699e-03       1.704433736977e+04 
       6.122441198393e-03       1.790758122047e+04 
       6.610859938837e-03       1.877461995884e+04 
       7.138242363583e-03       1.963874315465e+04 
       7.707696806873e-03       2.049217175288e+04 
       8.322579570814e-03       2.132608686904e+04 
       8.986514707061e-03       2.213056678027e+04 
       9.703415376577e-03       2.289446795183e+04 
       1.047750691338e-02       2.360549007243e+04 
       1.131335172818e-02       2.425023298301e+04 
       1.221587619877e-02       2.481423787017e+04 
       1.319039970550e-02       2.528218838473e+04 
       1.424266598317e-02       2.563813528458e+04 
       1.537887697392e-02       2.586605542984e+04 
       1.660572938023e-02       2.595024520425e+04 
       1.793045412706e-02       2.587632140241e+04 
       1.936085890181e-02       2.563215375094e+04 
       2.090537352463e-02       2.520930664206e+04 
       2.257309535333e-02       2.460438410554e+04 
       2.437382002918e-02       2.382080447089e+04 
       2.631799944462e-02       2.287034002880e+04 
       2.841644545389e-02       2.177435855018e+04 
       3.067933355377e-02       2.056540537669e+04 
       3.311368470740e-02       1.928711169157e+04 
       3.571840443502e-02       1.799378389534e+04 
       3.847720348444e-02       1.674656522892e+04 
       4.135335538431e-02       1.560427294282e+04 
       4.429361667738e-02       1.461002638739e+04 
       4.724366439141e-02       1.378014013895e+04 
       5.016480835311e-02       1.310458178683e+04 
       5.303989620246e-02       1.255666903174e+04 
       5.586870669566e-02       1.210368416698e+04 
       5.866042680613e-02       1.171405675882e+04 
       6.142798932958e-02       1.135983530595e+04 
       6.418496440164e-02       1.101788025916e+04 
       6.694418833788e-02       1.066996916269e+04 
       6.971731106057e-02       1.030285044479e+04 
       7.251476155766e-02       9.908251671467e+03 
       7.534587671527e-02       9.482950944799e+03 
       7.821907666265e-02       9.028695560137e+03 
       8.114203772912e-02       8.551492625415e+03 
       8.412184535029e-02       8.061061932824e+03 
       8.716512279304e-02       7.569924193631e+03 
       9.027813695930e-02       7.091625449704e+03 
       9.346688431697e-02       6.639644606191e+03 
       9.673716028275e-02       6.225817193418e+03 
       1.000946150830e-01       5.859024912192e+03 
       1.035447986537e-01       5.544342139848e+03 
       1.070931966762e-01       5.282190351410e+03 
       1.107452594425e-01       5.068449668248e+03 
       1.145064249153e-01       4.894247256053e+03 
       1.183821370918e-01       4.746812550229e+03 
       1.223778605862e-01       4.610659119608e+03 
       1.264990921987e-01       4.469504741104e+03 
       1.307513701367e-01       4.309144474377e+03 
       1.351402814784e-01       4.120244158791e+03 
       1.396714684203e-01       3.900925034832e+03 
       1.443506338194e-01       3.657520570785e+03 
       1.491835465229e-01       3.403361798387e+03 
       1.541760469708e-01       3.155536101968e+03 
       1.593340535561e-01       2.930824986144e+03 
       1.646635702297e-01       2.741238957304e+03 
       1.701706958456e-01       2.591108487552e+03 
       1.758616357459e-01       2.476076259448e+03 
       1.817427160982e-01       2.383999198602e+03 
       1.878204015065e-01       2.299166118606e+03 
       1.941013164283e-01       2.204546200344e+03 
       2.005922709503e-01       2.089608445179e+03 
       2.073002914972e-01       1.955249219183e+03 
       2.142326570816e-01       1.813000483199e+03 
       2.213969417533e-01       1.678097483321e+03 
       2.288010639706e-01       1.562663558140e+03 
       2.364533437147e-01       1.471501976983e+03 
       2.443625682930e-01       1.400333564713e+03 
       2.525380679504e-01       1.337219525982e+03 
       2.609898026346e-01       1.269704741947e+03 
       2.697284615565e-01       1.192194885515e+03 
       2.787655775689e-01       1.108162719383e+03 
       2.881136588829e-01       1.027605240475e+03 
       2.977863412677e-01       9.593250817381e+02 
       3.077985646929e-01       9.038699559223e+02 
       3.181667794071e-01       8.549956734585e+02 
       3.289091877812e-01       8.050439131050e+02 
       3.400460299658e-01       7.512592775850e+02 
       3.515999236474e-01       6.978036488086e+02 
       3.635962711085e-01       6.499563723309e+02 
       3.760637506334e-01       6.090247610616e+02 
       3.890349143879e-01       5.710437719852e+02 
       4.025469216825e-01       5.327060878026e+02 
       4.166424456376e-01       4.945705197374e+02 
       4.313708035863e-01       4.594199978741e+02 
       4.467893782977e-01       4.277412166501e+02 
       4.629654199663e-01       3.977511976096e+02 
       4.799783501994e-01       3.682359309577e+02 
       4.979227319373e-01       3.402495119471e+02 
       5.169121270864e-01       3.145090183204e+02 
       5.370841404489e-01       2.898777044359e+02 
       5.586070464571e-01       2.661653753366e+02 
       5.816885094930e-01       2.438874877998e+02 
       6.065870144995e-01       2.226647483813e+02 
       6.336266468475e-01       2.023273833370e+02 
       6.632156059511e-01       1.830166990511e+02 
       6.958678639262e-01       1.645157105830e+02 
       7.322247985589e-01       1.468806058594e+02 
       7.730680195113e-01       1.300444180939e+02 
       8.193049553677e-01       1.140688238797e+02 
       8.718988016039e-01       9.902875333181e+01 
       9.317218031081e-01       8.507542233245e+01 
       9.993660908989e-01       7.238392162388e+01 
       1.075037110174e+00       6.109805808032e+01 
       1.158653485707e+00       5.127392824557e+01 
       1.250099157308e+00       4.286757459614e+01 
       1.349432401273e+00       3.574868995111e+01 
       1.456947457397e+00       2.975812613214e+01 
       1.573135111331e+00       2.473465028454e+01 
       1.698621895592e+00       2.053104130300e+01 
       1.834127512934e+00       1.701917439014e+01 
       1.980444934528e+00       1.408912063832e+01 
       2.138435191726e+00       1.164774141081e+01 
       2.309029199186e+00       9.616278601296e+00 
       2.493232377687e+00       7.928195382381e+00 
       2.692130395285e+00       6.526978022435e+00 
       2.906895534573e+00       5.365564501079e+00 
       3.138793597714e+00       4.404033136928e+00 
       3.389191366484e+00       3.609025242837e+00 
       3.659564657905e+00       2.952572727320e+00 
       3.951507022538e+00       2.411248021826e+00 
       4.266739136701e+00       1.965479532746e+00 
       4.607118943941e+00       1.598900337412e+00 
       4.974652605557e+00       1.297897748290e+00 
       5.371506324689e+00       1.051124860203e+00 
       5.800019113685e+00       8.491400247542e-01 
       6.262716579983e+00       6.841008616079e-01 
       6.762325811764e+00       5.495026849806e-01 
       7.301791451110e+00       4.399557616819e-01 
       7.884293049406e+00       3.509890125599e-01 
       8.513263807261e+00       2.789117103960e-01 
       9.192410809424e+00       2.206727702685e-01 
       9.925736873929e+00       1.737557234227e-01 
       1.071756414427e+01       1.360782260659e-01 
       1.157255956364e+01       1.059346495671e-01 
       1.249576238137e+01       8.191859197174e-02 
       1.349261385375e+01       6.287255136660e-02 
       1.456898931416e+01       4.784802155716e-02 
       1.573123280165e+01       3.606783634375e-02 
       1.698619445202e+01       2.689455553264e-02 
       1.834127087176e+01       1.980799191445e-02 
       1.980444873285e+01       1.438367018845e-02 
       2.138435184532e+01       1.027532286377e-02 
       2.309029198506e+01       7.202061011690e-03 
       2.493232377636e+01       4.936143833478e-03 
       2.692130395282e+01       3.294227769603e-03 
       2.906895534573e+01       2.128526065494e-03 
       3.138793597714e+01       1.321478211998e-03 
       3.389191366484e+01       7.796180899128e-04 
       3.659564657905e+01       4.299100381511e-04 
       3.951507022538e+01       2.155749914426e-04 
       4.266739136701e+01       9.340863461242e-05 
       4.607118943941e+01       3.121072597494e-05 
       4.974652605557e+01       5.527488502679e-06 
       5.371506324689e+01       1.745780403372e-08 
       5.800019113685e+01       3.812923191906e-06 
       6.262716579983e+01       1.022404213084e-05 
       6.762325811764e+01       1.562150770274e-05 
       7.301791451110e+01       1.850223148599e-05 
       7.884293049406e+01       1.869130326163e-05 
       8.513263807261e+01       1.676846560413e-05 
       9.192410809424e+01       1.359848200741e-05 
       9.925736873929e+01       1.002719398131e-05 
       1.071756414427e+02       6.701870824766e-06 
       1.157255956364e+02       4.017432390516e-06 
       1.249576238137e+02       2.110268267404e-06 
       1.349261385375e+02       9.281674113857e-07 
       1.456898931416e+02       3.086157520417e-07 
       1.573123280165e+02       5.705524103334e-08 
