# Matter power spectrum P(k) at redshift z=99
# for k=1.04775e-05 to 66.1767 h/Mpc,
# number of wavenumbers equal to 130
#    1:k (h/Mpc)              2:P (Mpc/h)^3        
       1.047750691046e-05       7.261927695324e-03 
       1.319039970183e-05       9.069258219997e-03 
       1.660572937635e-05       1.132639108978e-02 
       2.090537469327e-05       1.414527126208e-02 
       2.631830744443e-05       1.766569587577e-02 
       3.313278603720e-05       2.206225520322e-02 
       4.171170630578e-05       2.755297771721e-02 
       5.251192703764e-05       3.441013529849e-02 
       6.610859936996e-05       4.297372181318e-02 
       8.322579568497e-05       5.366826863560e-02 
       1.047750691046e-04       6.702379886071e-02 
       1.319039970183e-04       8.370193457878e-02 
       1.660572937635e-04       1.045283357450e-01 
       2.090537469327e-04       1.305329136672e-01 
       2.631830744443e-04       1.629994509770e-01 
       3.313278603720e-04       2.035264008541e-01 
       4.171170630578e-04       2.541004749082e-01 
       5.251192703764e-04       3.171839534445e-01 
       6.610859936996e-04       3.958147263518e-01 
       8.322579568497e-04       4.937136014599e-01 
       1.047750691046e-03       6.153841644818e-01 
       1.319039970183e-03       7.661720601015e-01 
       1.660572937635e-03       9.522588021250e-01 
       2.090537469327e-03       1.180312990873e+00 
       2.631830744443e-03       1.456802680293e+00 
       3.313278603720e-03       1.786503840715e+00 
       4.171170630578e-03       2.169896125701e+00 
       5.251192703764e-03       2.599430541533e+00 
       6.610859936996e-03       3.055668491626e+00 
       8.322579568497e-03       3.505725059571e+00 
       1.047750691046e-02       3.905489418091e+00 
       1.319039970183e-02       4.200912444065e+00 
       1.660572937633e-02       4.325054727999e+00 
       2.090537453514e-02       4.210192765127e+00 
       2.631818545635e-02       3.825123732355e+00 
       3.311571692125e-02       3.229013835293e+00 
       4.113809243311e-02       2.627648355135e+00 
       4.792590854610e-02       2.280685343079e+00 
       5.284436902701e-02       2.109964422406e+00 
       5.689644391095e-02       2.003395401822e+00 
       6.051252627066e-02       1.922903013823e+00 
       6.388413457411e-02       1.852571820825e+00 
       6.711249296401e-02       1.784388985308e+00 
       7.025823437965e-02       1.714097235005e+00 
       7.336115587705e-02       1.639628681264e+00 
       7.644928796912e-02       1.560469218536e+00 
       7.954353299775e-02       1.477257022457e+00 
       8.266024078725e-02       1.391494446346e+00 
       8.581273398637e-02       1.305257235182e+00 
       8.901225918437e-02       1.220917834547e+00 
       9.226860540985e-02       1.140867109763e+00 
       9.559052048996e-02       1.067234750790e+00 
       9.898599946599e-02       1.001669203925e+00 
       1.024624891378e-01       9.451571395119e-01 
       1.060270359164e-01       8.979184179302e-01 
       1.096863943056e-01       8.593748154397e-01 
       1.134471073830e-01       8.281614929768e-01 
       1.173155669539e-01       8.022142091169e-01 
       1.212980586983e-01       7.789705578773e-01 
       1.254007961065e-01       7.556511965916e-01 
       1.296299459934e-01       7.297100016049e-01 
       1.339916477160e-01       6.993162781793e-01 
       1.384920277736e-01       6.638012768617e-01 
       1.431372111762e-01       6.238673687574e-01 
       1.479333307714e-01       5.814855890034e-01 
       1.528865355934e-01       5.394124978083e-01 
       1.580029992204e-01       5.005365959081e-01 
       1.632889290723e-01       4.671203148802e-01 
       1.687505775527e-01       4.402534919160e-01 
       1.743942559171e-01       4.195817441700e-01 
       1.802263517371e-01       4.033697908411e-01 
       1.862533508214e-01       3.890659943915e-01 
       1.924818644494e-01       3.738357895485e-01 
       1.989186627765e-01       3.555027893983e-01 
       2.055707152847e-01       3.337007189009e-01 
       2.124452391818e-01       3.099682185053e-01 
       2.195497567139e-01       2.868290130561e-01 
       2.268921624510e-01       2.665151188842e-01 
       2.344808017550e-01       2.501908505088e-01 
       2.423245618548e-01       2.375384757099e-01 
       2.504329772620e-01       2.268150528549e-01 
       2.588163516754e-01       2.158202700344e-01 
       2.674858990930e-01       2.032484763912e-01 
       2.764539076010e-01       1.893036586036e-01 
       2.857339303080e-01       1.754654061519e-01 
       2.953410092148e-01       1.634100747288e-01 
       3.052919395542e-01       1.536173185513e-01 
       3.156055844677e-01       1.452425898480e-01 
       3.263032530092e-01       1.369619222774e-01 
       3.374091587054e-01       1.280157717614e-01 
       3.489509817175e-01       1.188888894771e-01 
       3.609605657343e-01       1.105273534413e-01 
       3.734747921333e-01       1.033673901609e-01 
       3.865366902904e-01       9.686507859427e-02 
       4.001968667448e-01       9.034192600595e-02 
       4.145153713076e-01       8.376658840718e-02 
       4.295641718077e-01       7.762391195261e-02 
       4.454304922144e-01       7.207725272035e-02 
       4.622214006969e-01       6.683222164057e-02 
       4.800702491654e-01       6.163371402557e-02 
       4.991459272112e-01       5.667186765514e-02 
       5.196665217302e-01       5.206544300689e-02 
       5.419201087032e-01       4.758612689792e-02 
       5.662975451962e-01       4.324473656290e-02 
       5.933463737275e-01       3.909359601891e-02 
       6.238638458458e-01       3.502111758906e-02 
       6.590669257916e-01       3.103629119408e-02 
       7.009246080454e-01       2.706716906901e-02 
       7.528593308799e-01       2.306589298338e-02 
       8.213469537518e-01       1.894495342064e-02 
       9.196980813302e-01       1.462583336519e-02 
       1.075112183810e+00       1.017621815518e-02 
       1.322697471132e+00       6.225798400878e-03 
       1.662328205042e+00       3.573742822020e-03 
       2.092692408506e+00       2.012681516751e-03 
       2.634543445090e+00       1.114222687395e-03 
       3.316693691389e+00       6.041603582955e-04 
       4.175469971226e+00       3.189420502239e-04 
       5.256605252960e+00       1.623829407762e-04 
       6.617673932723e+00       7.855924953620e-05 
       8.331157880872e+00       3.527856260765e-05 
       1.048830636590e+01       1.415012030617e-05 
       1.320399541071e+01       4.732684276779e-06 
       1.662284535976e+01       1.140792747430e-06 
       2.092692243973e+01       1.247601675000e-07 
       2.634543445002e+01       1.880077490384e-09 
       3.316693691389e+01       3.871125231267e-08 
       4.175469971226e+01       3.611057981977e-08 
       5.256605252960e+01       1.209389455758e-08 
       6.617673932723e+01       9.146871364514e-10 
