# Matter power spectrum P(k) at redshift z=99
# for k=1.04775e-05 to 66.1767 h/Mpc,
# number of wavenumbers equal to 130
#    1:k (h/Mpc)              2:P (Mpc/h)^3        
       1.047750691046e-05       7.261927896546e-03 
       1.319039970183e-05       9.069258472210e-03 
       1.660572937635e-05       1.132639226932e-02 
       2.090537469327e-05       1.414527165339e-02 
       2.631830744443e-05       1.766569621397e-02 
       3.313278603720e-05       2.206225581260e-02 
       4.171170630578e-05       2.755297847544e-02 
       5.251192703764e-05       3.441013625257e-02 
       6.610859936996e-05       4.297372300170e-02 
       8.322579568497e-05       5.366827011663e-02 
       1.047750691046e-04       6.702380071283e-02 
       1.319039970183e-04       8.370193699057e-02 
       1.660572937635e-04       1.045283386213e-01 
       2.090537469327e-04       1.305329172407e-01 
       2.631830744443e-04       1.629994553839e-01 
       3.313278603720e-04       2.035264063341e-01 
       4.171170630578e-04       2.541004816367e-01 
       5.251192703764e-04       3.171839616188e-01 
       6.610859936996e-04       3.958147360726e-01 
       8.322579568497e-04       4.937136126603e-01 
       1.047750691046e-03       6.153841765757e-01 
       1.319039970183e-03       7.661720713352e-01 
       1.660572937635e-03       9.522588071127e-01 
       2.090537469327e-03       1.180312976115e+00 
       2.631830744443e-03       1.456802606596e+00 
       3.313278603720e-03       1.786503614738e+00 
       4.171170630578e-03       2.169895582934e+00 
       5.251192703764e-03       2.599428958643e+00 
       6.610859936996e-03       3.055664435430e+00 
       8.322579568497e-03       3.505713866723e+00 
       1.047750691046e-02       3.905465294187e+00 
       1.319039970183e-02       4.200854672224e+00 
       1.660572937633e-02       4.324928540038e+00 
       2.090537453514e-02       4.209901263216e+00 
       2.631818545635e-02       3.824550786038e+00 
       3.311571692125e-02       3.227932047747e+00 
       4.113809243311e-02       2.625847668706e+00 
       4.792590854610e-02       2.278206312516e+00 
       5.284436902701e-02       2.106972629996e+00 
       5.689644391095e-02       1.999977319062e+00 
       6.051252627066e-02       1.919113245071e+00 
       6.388413457411e-02       1.848436173404e+00 
       6.711249296401e-02       1.779944750772e+00 
       7.025823437965e-02       1.709365140428e+00 
       7.336115587705e-02       1.634632230128e+00 
       7.644928796912e-02       1.555226963498e+00 
       7.954353299775e-02       1.471788451432e+00 
       8.266024078725e-02       1.385806041211e+00 
       8.581273398637e-02       1.299356287533e+00 
       8.901225918437e-02       1.214814959653e+00 
       9.226860540985e-02       1.134556406000e+00 
       9.559052048996e-02       1.060708982590e+00 
       9.898599946599e-02       9.949148536099e-01 
       1.024624891378e-01       9.381555086201e-01 
       1.060270359164e-01       8.906512852674e-01 
       1.096863943056e-01       8.518166016274e-01 
       1.134471073830e-01       8.202932303233e-01 
       1.173155669539e-01       7.940258440087e-01 
       1.212980586983e-01       7.704591289678e-01 
       1.254007961065e-01       7.468281027692e-01 
       1.296299459934e-01       7.206046086648e-01 
       1.339916477160e-01       6.899681711005e-01 
       1.384920277736e-01       6.542509364499e-01 
       1.431372111762e-01       6.141625684769e-01 
       1.479333307714e-01       5.716550409786e-01 
       1.528865355934e-01       5.294723293830e-01 
       1.580029992204e-01       4.904685337643e-01 
       1.632889290723e-01       4.568910488106e-01 
       1.687505775527e-01       4.298149854397e-01 
       1.743942559171e-01       4.088856850690e-01 
       1.802263517371e-01       3.923730060918e-01 
       1.862533508214e-01       3.777673801662e-01 
       1.924818644494e-01       3.622747230087e-01 
       1.989186627765e-01       3.437478263406e-01 
       2.055707152847e-01       3.218322183830e-01 
       2.124452391818e-01       2.980470430171e-01 
       2.195497567139e-01       2.748652733031e-01 
       2.268921624510e-01       2.544803036928e-01 
       2.344808017550e-01       2.380225202421e-01 
       2.423245618548e-01       2.251791389007e-01 
       2.504329772620e-01       2.142438853298e-01 
       2.588163516754e-01       2.030740904365e-01 
       2.674858990930e-01       1.904080524310e-01 
       2.764539076010e-01       1.764428357509e-01 
       2.857339303080e-01       1.626129975922e-01 
       2.953410092148e-01       1.505346629429e-01 
       3.052919395542e-01       1.406615552942e-01 
       3.156055844677e-01       1.321815432991e-01 
       3.263032530092e-01       1.238272069128e-01 
       3.374091587054e-01       1.148758813041e-01 
       3.489509817175e-01       1.057891590863e-01 
       3.609605657343e-01       9.746186148756e-02 
       3.734747921333e-01       9.030033369766e-02 
       3.865366902904e-01       8.379292875846e-02 
       4.001968667448e-01       7.730474679744e-02 
       4.145153713076e-01       7.080835991739e-02 
       4.295641718077e-01       6.474985300119e-02 
       4.454304922144e-01       5.927684097108e-02 
       4.622214006969e-01       5.412026977948e-02 
       4.800702491654e-01       4.904903390160e-02 
       4.991459272112e-01       4.423310139252e-02 
       5.196665217302e-01       3.977751652950e-02 
       5.419201087032e-01       3.548142414977e-02 
       5.662975451962e-01       3.135555170071e-02 
       5.933463737275e-01       2.744578111392e-02 
       6.238638458458e-01       2.366143951042e-02 
       6.590669257916e-01       2.001487070751e-02 
       7.009246080454e-01       1.645790973983e-02 
       7.528593308799e-01       1.297120825159e-02 
       8.213469537518e-01       9.525629239276e-03 
       9.196980813302e-01       6.147540315932e-03 
       1.075112183810e+00       3.071398999480e-03 
       1.322697471132e+00       9.562130118547e-04 
       1.662328205042e+00       1.329582907190e-04 
       2.092692408506e+00       1.380642483725e-07 
       2.634543445090e+00       3.043058427054e-05 
       3.316693691389e+00       3.133998929406e-05 
       4.175469971226e+00       9.529680506835e-06 
       5.256605252960e+00       2.942231587353e-07 
       6.617673932723e+00       2.873982157361e-07 
       8.331157880872e+00       1.200951219349e-07 
       1.048830636590e+01       3.624444651481e-10 
       1.320399541071e+01       2.281605891679e-09 
       1.662284535976e+01       3.557231434913e-11 
       2.092692243973e+01       4.915899937311e-13 
       2.634543445002e+01       5.073458467848e-13 
       3.316693691389e+01       1.387640734634e-14 
       4.175469971226e+01       7.732182878017e-15 
       5.256605252960e+01       1.188760636480e-15 
       6.617673932723e+01       7.149456877929e-17 
