# Matter power spectrum P(k) at redshift z=99
# for k=1.04775e-05 to 66.1767 h/Mpc,
# number of wavenumbers equal to 130
#    1:k (h/Mpc)              2:P (Mpc/h)^3        
       1.047750691046e-05       7.261927734630e-03 
       1.319039970183e-05       9.069258269320e-03 
       1.660572937635e-05       1.132639115101e-02 
       2.090537469327e-05       1.414527133842e-02 
       2.631830744443e-05       1.766569597140e-02 
       3.313278603720e-05       2.206225532225e-02 
       4.171170630578e-05       2.755297786517e-02 
       5.251192703764e-05       3.441013548627e-02 
       6.610859936996e-05       4.297372204528e-02 
       8.322579568497e-05       5.366826892418e-02 
       1.047750691046e-04       6.702379922207e-02 
       1.319039970183e-04       8.370193502985e-02 
       1.660572937635e-04       1.045283363065e-01 
       2.090537469327e-04       1.305329143650e-01 
       2.631830744443e-04       1.629994518366e-01 
       3.313278603720e-04       2.035264019247e-01 
       4.171170630578e-04       2.541004762235e-01 
       5.251192703764e-04       3.171839550448e-01 
       6.610859936996e-04       3.958147282556e-01 
       8.322579568497e-04       4.937136036596e-01 
       1.047750691046e-03       6.153841668684e-01 
       1.319039970183e-03       7.661720622994e-01 
       1.660572937635e-03       9.522588034276e-01 
       2.090537469327e-03       1.180312988629e+00 
       2.631830744443e-03       1.456802668371e+00 
       3.313278603720e-03       1.786503804550e+00 
       4.171170630578e-03       2.169896080723e+00 
       5.251192703764e-03       2.599430299687e+00 
       6.610859936996e-03       3.055667893633e+00 
       8.322579568497e-03       3.505723599093e+00 
       1.047750691046e-02       3.905486082663e+00 
       1.319039970183e-02       4.200904560615e+00 
       1.660572937633e-02       4.325038281741e+00 
       2.090537453514e-02       4.210150803171e+00 
       2.631818545635e-02       3.825059035651e+00 
       3.311571692125e-02       3.228889275289e+00 
       4.113809243311e-02       2.627445395448e+00 
       4.792590854610e-02       2.280410588352e+00 
       5.284436902701e-02       2.109628848396e+00 
       5.689644391095e-02       2.003021525172e+00 
       6.051252627066e-02       1.922497402869e+00 
       6.388413457411e-02       1.852134439828e+00 
       6.711249296401e-02       1.783927901112e+00 
       7.025823437965e-02       1.713610311091e+00 
       7.336115587705e-02       1.639122752862e+00 
       7.644928796912e-02       1.559952708778e+00 
       7.954353299775e-02       1.476729049592e+00 
       8.266024078725e-02       1.390952312546e+00 
       8.581273398637e-02       1.304703592588e+00 
       8.901225918437e-02       1.220355657273e+00 
       9.226860540985e-02       1.140296335273e+00 
       9.559052048996e-02       1.066658082661e+00 
       9.898599946599e-02       1.001076633129e+00 
       1.024624891378e-01       9.445513341276e-01 
       1.060270359164e-01       8.972970585762e-01 
       1.096863943056e-01       8.587404258403e-01 
       1.134471073830e-01       8.275045230704e-01 
       1.173155669539e-01       8.015402513510e-01 
       1.212980586983e-01       7.782736671521e-01 
       1.254007961065e-01       7.549405821747e-01 
       1.296299459934e-01       7.289840992806e-01 
       1.339916477160e-01       6.985815451957e-01 
       1.384920277736e-01       6.630601991872e-01 
       1.431372111762e-01       6.231255709002e-01 
       1.479333307714e-01       5.807443733951e-01 
       1.528865355934e-01       5.386739872058e-01 
       1.580029992204e-01       4.997987216228e-01 
       1.632889290723e-01       4.663816056546e-01 
       1.687505775527e-01       4.395084773254e-01 
       1.743942559171e-01       4.188269179274e-01 
       1.802263517371e-01       4.026041918058e-01 
       1.862533508214e-01       3.882877860127e-01 
       1.924818644494e-01       3.730483437866e-01 
       1.989186627765e-01       3.547107187058e-01 
       2.055707152847e-01       3.329124993593e-01 
       2.124452391818e-01       3.091872200442e-01 
       2.195497567139e-01       2.860532534461e-01 
       2.268921624510e-01       2.657457553344e-01 
       2.344808017550e-01       2.494211877081e-01 
       2.423245618548e-01       2.367662302421e-01 
       2.504329772620e-01       2.260378662670e-01 
       2.588163516754e-01       2.150394655063e-01 
       2.674858990930e-01       2.024715809601e-01 
       2.764539076010e-01       1.885332733869e-01 
       2.857339303080e-01       1.747044192442e-01 
       2.953410092148e-01       1.626557070687e-01 
       3.052919395542e-01       1.528667319611e-01 
       3.156055844677e-01       1.444923653849e-01 
       3.263032530092e-01       1.362145995898e-01 
       3.374091587054e-01       1.272761787617e-01 
       3.489509817175e-01       1.181579661202e-01 
       3.609605657343e-01       1.098048724031e-01 
       3.734747921333e-01       1.026509041210e-01 
       3.865366902904e-01       9.615461582097e-02 
       4.001968667448e-01       8.963885110874e-02 
       4.145153713076e-01       8.307341217828e-02 
       4.295641718077e-01       7.694025617856e-02 
       4.454304922144e-01       7.140248099590e-02 
       4.622214006969e-01       6.616628885709e-02 
       4.800702491654e-01       6.097888844843e-02 
       4.991459272112e-01       5.602823514486e-02 
       5.196665217302e-01       5.143294628765e-02 
       5.419201087032e-01       4.696566381955e-02 
       5.662975451962e-01       4.263768925308e-02 
       5.933463737275e-01       3.850034480946e-02 
       6.238638458458e-01       3.444333022933e-02 
       6.590669257916e-01       3.047553997448e-02 
       7.009246080454e-01       2.652583915157e-02 
       7.528593308799e-01       2.254708838937e-02 
       8.213469537518e-01       1.845363465471e-02 
       9.196980813302e-01       1.417013031820e-02 
       1.075112183810e+00       9.768737958468e-03 
       1.322697471132e+00       5.879660738164e-03 
       1.662328205042e+00       3.290472164025e-03 
       2.092692408506e+00       1.786568741234e-03 
       2.634543445090e+00       9.386745929926e-04 
       3.316693691389e+00       4.723797753104e-04 
       4.175469971226e+00       2.241351219453e-04 
       5.256605252960e+00       9.785687198886e-05 
       6.617673932723e+00       3.779311024046e-05 
       8.331157880872e+00       1.203829099357e-05 
       1.048830636590e+01       2.724242835981e-06 
       1.320399541071e+01       2.700081494140e-07 
       1.662284535976e+01       5.891765942975e-09 
       2.092692243973e+01       8.368194801341e-08 
       2.634543445002e+01       7.202849319752e-08 
       3.316693691389e+01       2.319134698680e-08 
       4.175469971226e+01       1.919004679378e-09 
       5.256605252960e+01       9.724497424212e-11 
       6.617673932723e+01       2.397338854213e-10 
