# Matter power spectrum P(k) at redshift z=99
# for k=1.04775e-05 to 66.1767 h/Mpc,
# number of wavenumbers equal to 130
#    1:k (h/Mpc)              2:P (Mpc/h)^3        
       1.047750691046e-05       7.261927681189e-03 
       1.319039970183e-05       9.069258202259e-03 
       1.660572937635e-05       1.132639106776e-02 
       2.090537469327e-05       1.414527123463e-02 
       2.631830744443e-05       1.766569584138e-02 
       3.313278603720e-05       2.206225516041e-02 
       4.171170630578e-05       2.755297766400e-02 
       5.251192703764e-05       3.441013523103e-02 
       6.610859936996e-05       4.297372172971e-02 
       8.322579568497e-05       5.366826853184e-02 
       1.047750691046e-04       6.702379873075e-02 
       1.319039970183e-04       8.370193441660e-02 
       1.660572937635e-04       1.045283355431e-01 
       2.090537469327e-04       1.305329134162e-01 
       2.631830744443e-04       1.629994506677e-01 
       3.313278603720e-04       2.035264004690e-01 
       4.171170630578e-04       2.541004744352e-01 
       5.251192703764e-04       3.171839528690e-01 
       6.610859936996e-04       3.958147256672e-01 
       8.322579568497e-04       4.937136006692e-01 
       1.047750691046e-03       6.153841636243e-01 
       1.319039970183e-03       7.661720592965e-01 
       1.660572937635e-03       9.522588016608e-01 
       2.090537469327e-03       1.180312991681e+00 
       2.631830744443e-03       1.456802684587e+00 
       3.313278603720e-03       1.786503853740e+00 
       4.171170630578e-03       2.169896177091e+00 
       5.251192703764e-03       2.599430628705e+00 
       6.610859936996e-03       3.055668704156e+00 
       8.322579568497e-03       3.505725262821e+00 
       1.047750691046e-02       3.905489821256e+00 
       1.319039970183e-02       4.200915257435e+00 
       1.660572937633e-02       4.325064428459e+00 
       2.090537453514e-02       4.210198332804e+00 
       2.631818545635e-02       3.825149047257e+00 
       3.311571692125e-02       3.229062965505e+00 
       4.113809243311e-02       2.627729178606e+00 
       4.792590854610e-02       2.280790766557e+00 
       5.284436902701e-02       2.110081835246e+00 
       5.689644391095e-02       2.003536083762e+00 
       6.051252627066e-02       1.923054003258e+00 
       6.388413457411e-02       1.852725777630e+00 
       6.711249296401e-02       1.784557172066e+00 
       7.025823437965e-02       1.714272531635e+00 
       7.336115587705e-02       1.639808139148e+00 
       7.644928796912e-02       1.560657607326e+00 
       7.954353299775e-02       1.477453949968e+00 
       8.266024078725e-02       1.391690290177e+00 
       8.581273398637e-02       1.305456737319e+00 
       8.901225918437e-02       1.221124775326e+00 
       9.226860540985e-02       1.141075222928e+00 
       9.559052048996e-02       1.067449579125e+00 
       9.898599946599e-02       1.001884354210e+00 
       1.024624891378e-01       9.453759176987e-01 
       1.060270359164e-01       8.981436352816e-01 
       1.096863943056e-01       8.596077134689e-01 
       1.134471073830e-01       8.283994936044e-01 
       1.173155669539e-01       8.024609277217e-01 
       1.212980586983e-01       7.792234597075e-01 
       1.254007961065e-01       7.559136615344e-01 
       1.296299459934e-01       7.299763946085e-01 
       1.339916477160e-01       6.995862383583e-01 
       1.384920277736e-01       6.640715546396e-01 
       1.431372111762e-01       6.241402788290e-01 
       1.479333307714e-01       5.817568140709e-01 
       1.528865355934e-01       5.396845701763e-01 
       1.580029992204e-01       5.008078881145e-01 
       1.632889290723e-01       4.673918659760e-01 
       1.687505775527e-01       4.405290906854e-01 
       1.743942559171e-01       4.198592891303e-01 
       1.802263517371e-01       4.036535240449e-01 
       1.862533508214e-01       3.893537343034e-01 
       1.924818644494e-01       3.741293035101e-01 
       1.989186627765e-01       3.557961627945e-01 
       2.055707152847e-01       3.339926392829e-01 
       2.124452391818e-01       3.102591997809e-01 
       2.195497567139e-01       2.871162212442e-01 
       2.268921624510e-01       2.668014276202e-01 
       2.344808017550e-01       2.504767718130e-01 
       2.423245618548e-01       2.378269931647e-01 
       2.504329772620e-01       2.271061351355e-01 
       2.588163516754e-01       2.161104610210e-01 
       2.674858990930e-01       2.035387330236e-01 
       2.764539076010e-01       1.895917667446e-01 
       2.857339303080e-01       1.757510337950e-01 
       2.953410092148e-01       1.636932687055e-01 
       3.052919395542e-01       1.539004999618e-01 
       3.156055844677e-01       1.455250317212e-01 
       3.263032530092e-01       1.372438919760e-01 
       3.374091587054e-01       1.282954968976e-01 
       3.489509817175e-01       1.191653577011e-01 
       3.609605657343e-01       1.108012596771e-01 
       3.734747921333e-01       1.036394795559e-01 
       3.865366902904e-01       9.713508897549e-02 
       4.001968667448e-01       9.060954430561e-02 
       4.145153713076e-01       8.403125414891e-02 
       4.295641718077e-01       7.788566996059e-02 
       4.454304922144e-01       7.233604506682e-02 
       4.622214006969e-01       6.708804480851e-02 
       4.800702491654e-01       6.188632689247e-02 
       4.991459272112e-01       5.692067916943e-02 
       5.196665217302e-01       5.231077983082e-02 
       5.419201087032e-01       4.782732709720e-02 
       5.662975451962e-01       4.348176055606e-02 
       5.933463737275e-01       3.932598396500e-02 
       6.238638458458e-01       3.524854026072e-02 
       6.590669257916e-01       3.125799324800e-02 
       7.009246080454e-01       2.728274035277e-02 
       7.528593308799e-01       2.327392536158e-02 
       8.213469537518e-01       1.914393387652e-02 
       9.196980813302e-01       1.481302072033e-02 
       1.075112183810e+00       1.034725252941e-02 
       1.322697471132e+00       6.376253451406e-03 
       1.662328205042e+00       3.702936617563e-03 
       2.092692408506e+00       2.122225270519e-03 
       2.634543445090e+00       1.206026137103e-03 
       3.316693691389e+00       6.800873881142e-04 
       4.175469971226e+00       3.807778826153e-04 
       5.256605252960e+00       2.117574271734e-04 
       6.617673932723e+00       1.169976717029e-04 
       8.331157880872e+00       6.422307784632e-05 
       1.048830636590e+01       3.501483483710e-05 
       1.320399541071e+01       1.894708808525e-05 
       1.662284535976e+01       1.016153754121e-05 
       2.092692243973e+01       5.388630538987e-06 
       2.634543445002e+01       2.814769755670e-06 
       3.316693691389e+01       1.439502829707e-06 
       4.175469971226e+01       7.138845555992e-07 
       5.256605252960e+01       3.381794569719e-07 
       6.617673932723e+01       1.493813141366e-07 
