# Matter power spectrum P(k) at redshift z=0
# for k=1.04775e-05 to 66.1767 h/Mpc,
# number of wavenumbers equal to 130
#    1:k (h/Mpc)              2:P (Mpc/h)^3        
       1.047750691046e-05       5.020964811311e+01 
       1.319039970183e-05       6.270562594842e+01 
       1.660572937635e-05       7.831147247912e+01 
       2.090537469327e-05       9.780108069358e+01 
       2.631830744443e-05       1.221408203809e+02 
       3.313278603720e-05       1.525374501932e+02 
       4.171170630578e-05       1.904975994011e+02 
       5.251192703764e-05       2.379022224245e+02 
       6.610859936996e-05       2.970989227882e+02 
       8.322579568497e-05       3.710167318946e+02 
       1.047750691046e-04       4.633080766742e+02 
       1.319039970183e-04       5.785234129338e+02 
       1.660572937635e-04       7.223242666092e+02 
       2.090537469327e-04       9.017396271824e+02 
       2.631830744443e-04       1.125468123750e+03 
       3.313278603720e-04       1.404223053681e+03 
       4.171170630578e-04       1.751108028789e+03 
       5.251192703764e-04       2.181998448133e+03 
       6.610859936996e-04       2.715889983592e+03 
       8.322579568497e-04       3.375152337115e+03 
       1.047750691046e-03       4.185552174335e+03 
       1.319039970183e-03       5.175742742914e+03 
       1.660572937635e-03       6.376123051726e+03 
       2.090537469327e-03       7.815671912675e+03 
       2.631830744443e-03       9.517783068898e+03 
       3.313278603720e-03       1.149357460281e+04 
       4.171170630578e-03       1.373266003093e+04 
       5.251192703764e-03       1.619063614122e+04 
       6.610859936996e-03       1.877460367004e+04 
       8.322579568497e-03       2.132607229286e+04 
       1.047750691046e-02       2.360548007399e+04 
       1.319039970183e-02       2.528218702421e+04 
       1.660572937633e-02       2.595028749552e+04 
       2.090537453514e-02       2.520935625817e+04 
       2.631818545635e-02       2.287031308035e+04 
       3.311571692125e-02       1.928627566865e+04 
       4.113809243311e-02       1.568428401224e+04 
       4.792590854610e-02       1.361062116110e+04 
       5.284436902701e-02       1.259130178890e+04 
       5.689644391095e-02       1.195555640264e+04 
       6.051252627066e-02       1.147546316518e+04 
       6.388413457411e-02       1.105588561517e+04 
       6.711249296401e-02       1.064902272748e+04 
       7.025823437965e-02       1.022930358362e+04 
       7.336115587705e-02       9.784504299911e+03 
       7.644928796912e-02       9.311623368135e+03 
       7.954353299775e-02       8.814506460372e+03 
       8.266024078725e-02       8.302143763363e+03 
       8.581273398637e-02       7.786943581965e+03 
       8.901225918437e-02       7.283178705832e+03 
       9.226860540985e-02       6.805127931715e+03 
       9.559052048996e-02       6.365606252672e+03 
       9.898599946599e-02       5.974382250603e+03 
       1.024624891378e-01       5.637328101697e+03 
       1.060270359164e-01       5.355784977010e+03 
       1.096863943056e-01       5.126256248096e+03 
       1.134471073830e-01       4.940479169654e+03 
       1.173155669539e-01       4.786158819669e+03 
       1.212980586983e-01       4.647925338726e+03 
       1.254007961065e-01       4.509119249491e+03 
       1.296299459934e-01       4.354517755751e+03 
       1.339916477160e-01       4.173198866702e+03 
       1.384920277736e-01       3.961161508117e+03 
       1.431372111762e-01       3.722655681739e+03 
       1.479333307714e-01       3.469554443716e+03 
       1.528865355934e-01       3.218329603294e+03 
       1.580029992204e-01       2.986267215107e+03 
       1.632889290723e-01       2.786952888393e+03 
       1.687505775527e-01       2.626815822074e+03 
       1.743942559171e-01       2.503758494294e+03 
       1.802263517371e-01       2.407315128092e+03 
       1.862533508214e-01       2.322241285850e+03 
       1.924818644494e-01       2.231543166759e+03 
       1.989186627765e-01       2.122175611423e+03 
       2.055707152847e-01       1.992021826081e+03 
       2.124452391818e-01       1.850309093755e+03 
       2.195497567139e-01       1.712156679067e+03 
       2.268921624510e-01       1.590971155836e+03 
       2.344808017550e-01       1.493650795266e+03 
       2.423245618548e-01       1.418291167842e+03 
       2.504329772620e-01       1.354454167584e+03 
       2.588163516754e-01       1.288919544640e+03 
       2.674858990930e-01       1.213920805963e+03 
       2.764539076010e-01       1.130678860730e+03 
       2.857339303080e-01       1.048084768060e+03 
       2.953410092148e-01       9.761707503708e+02 
       3.052919395542e-01       9.177969746900e+02 
       3.156055844677e-01       8.678846968598e+02 
       3.263032530092e-01       8.185129241408e+02 
       3.374091587054e-01       7.651317553386e+02 
       3.489509817175e-01       7.106591815499e+02 
       3.609605657343e-01       6.607719604998e+02 
       3.734747921333e-01       6.180708186291e+02 
       3.865366902904e-01       5.792990812655e+02 
       4.001968667448e-01       5.403770913214e+02 
       4.145153713076e-01       5.011380814893e+02 
       4.295641718077e-01       4.644860569984e+02 
       4.454304922144e-01       4.313962074346e+02 
       4.622214006969e-01       4.001031687032e+02 
       4.800702491654e-01       3.690768545587e+02 
       4.991459272112e-01       3.394633256215e+02 
       5.196665217302e-01       3.119755071771e+02 
       5.419201087032e-01       2.852369839279e+02 
       5.662975451962e-01       2.593198493380e+02 
       5.933463737275e-01       2.345378186891e+02 
       6.238638458458e-01       2.102203848979e+02 
       6.590669257916e-01       1.864233133282e+02 
       7.009246080454e-01       1.627155674428e+02 
       7.528593308799e-01       1.388089654878e+02 
       8.213469537518e-01       1.141795254338e+02 
       9.196980813302e-01       8.835100090954e+01 
       1.075112183810e+00       6.171862377260e+01 
       1.322697471132e+00       3.803626213911e+01 
       1.662328205042e+00       2.209244852328e+01 
       2.092692408506e+00       1.266463896011e+01 
       2.634543445090e+00       7.199666078687e+00 
       3.316693691389e+00       4.062137264985e+00 
       4.175469971226e+00       2.276168223944e+00 
       5.256605252960e+00       1.267413704836e+00 
       6.617673932723e+00       7.015945480670e-01 
       8.331157880872e+00       3.862608433051e-01 
       1.048830636590e+01       2.115573050383e-01 
       1.320399541071e+01       1.152946139437e-01 
       1.662284535976e+01       6.252375842701e-02 
       2.092692243973e+01       3.373648371295e-02 
       2.634543445002e+01       1.810652945129e-02 
       3.316693691389e+01       9.660151193372e-03 
       4.175469971226e+01       5.118181777069e-03 
       5.256605252960e+01       2.688699660730e-03 
       6.617673932723e+01       1.397120950129e-03 
