# Matter power spectrum P(k) at redshift z=0
# for k=1.04775e-05 to 66.1767 h/Mpc,
# number of wavenumbers equal to 130
#    1:k (h/Mpc)              2:P (Mpc/h)^3        
       1.047750691046e-05       5.020964824882e+01 
       1.319039970183e-05       6.270562869466e+01 
       1.660572937635e-05       7.831148226990e+01 
       2.090537469327e-05       9.780106872492e+01 
       2.631830744443e-05       1.221408188786e+02 
       3.313278603720e-05       1.525374505948e+02 
       4.171170630578e-05       1.904976001765e+02 
       5.251192703764e-05       2.379022230551e+02 
       6.610859936996e-05       2.970989292852e+02 
       8.322579568497e-05       3.710167324281e+02 
       1.047750691046e-04       4.633080766442e+02 
       1.319039970183e-04       5.785234126584e+02 
       1.660572937635e-04       7.223242669241e+02 
       2.090537469327e-04       9.017396262835e+02 
       2.631830744443e-04       1.125468123295e+03 
       3.313278603720e-04       1.404223052273e+03 
       4.171170630578e-04       1.751108027326e+03 
       5.251192703764e-04       2.181998446238e+03 
       6.610859936996e-04       2.715889982202e+03 
       8.322579568497e-04       3.375152327115e+03 
       1.047750691046e-03       4.185552145319e+03 
       1.319039970183e-03       5.175742659490e+03 
       1.660572937635e-03       6.376122758003e+03 
       2.090537469327e-03       7.815670969917e+03 
       2.631830744443e-03       9.517780343840e+03 
       3.313278603720e-03       1.149356672362e+04 
       4.171170630578e-03       1.373263844958e+04 
       5.251192703764e-03       1.619057676126e+04 
       6.610859936996e-03       1.877444802338e+04 
       8.322579568497e-03       2.132568288315e+04 
       1.047750691046e-02       2.360455259967e+04 
       1.319039970183e-02       2.527999421634e+04 
       1.660572937633e-02       2.594533130119e+04 
       2.090537453514e-02       2.519873233099e+04 
       2.631818545635e-02       2.284896745662e+04 
       3.311571692125e-02       1.924627314647e+04 
       4.113809243311e-02       1.561757887020e+04 
       4.792590854610e-02       1.351917506719e+04 
       5.284436902701e-02       1.248124377536e+04 
       5.689644391095e-02       1.183028127280e+04 
       6.051252627066e-02       1.133685672159e+04 
       6.388413457411e-02       1.090540569632e+04 
       6.711249296401e-02       1.048769248419e+04 
       7.025823437965e-02       1.005820702655e+04 
       7.336115587705e-02       9.604498257087e+03 
       7.644928796912e-02       9.123461885235e+03 
       7.954353299775e-02       8.618837911707e+03 
       8.266024078725e-02       8.099415136891e+03 
       8.581273398637e-02       7.577621777877e+03 
       8.901225918437e-02       7.067343891893e+03 
       9.226860540985e-02       6.582894285758e+03 
       9.559052048996e-02       6.136612432935e+03 
       9.898599946599e-02       5.738176382943e+03 
       1.024624891378e-01       5.393392608084e+03 
       1.060270359164e-01       5.103338513696e+03 
       1.096863943056e-01       4.864539607537e+03 
       1.134471073830e-01       4.668945492384e+03 
       1.173155669539e-01       4.504466862625e+03 
       1.212980586983e-01       4.356138676087e+03 
       1.254007961065e-01       4.207852022021e+03 
       1.296299459934e-01       4.044907338115e+03 
       1.339916477160e-01       3.856764375247e+03 
       1.384920277736e-01       3.639623058054e+03 
       1.431372111762e-01       3.397695109645e+03 
       1.479333307714e-01       3.142320314716e+03 
       1.528865355934e-01       2.889384099554e+03 
       1.580029992204e-01       2.655292131909e+03 
       1.632889290723e-01       2.452805493465e+03 
       1.687505775527e-01       2.287906295314e+03 
       1.743942559171e-01       2.158439801050e+03 
       1.802263517371e-01       2.054551583112e+03 
       1.862533508214e-01       1.962120090806e+03 
       1.924818644494e-01       1.865537433542e+03 
       1.989186627765e-01       1.752864867281e+03 
       2.055707152847e-01       1.622265729065e+03 
       2.124452391818e-01       1.482222246645e+03 
       2.195497567139e-01       1.346360572091e+03 
       2.268921624510e-01       1.226581286420e+03 
       2.344808017550e-01       1.128828797672e+03 
       2.423245618548e-01       1.051281072919e+03 
       2.504329772620e-01       9.848088266501e+02 
       2.588163516754e-01       9.180906916136e+02 
       2.674858990930e-01       8.445910036802e+02 
       2.764539076010e-01       7.654024182577e+02 
       2.857339303080e-01       6.879310816452e+02 
       2.953410092148e-01       6.202829546030e+02 
       3.052919395542e-01       5.646157209339e+02 
       3.156055844677e-01       5.168103288884e+02 
       3.263032530092e-01       4.706729270460e+02 
       3.374091587054e-01       4.227424050192e+02 
       3.489509817175e-01       3.752337696632e+02 
       3.609605657343e-01       3.322733658855e+02 
       3.734747921333e-01       2.956193524017e+02 
       3.865366902904e-01       2.629091379770e+02 
       4.001968667448e-01       2.313420410275e+02 
       4.145153713076e-01       2.007999077395e+02 
       4.295641718077e-01       1.731154803951e+02 
       4.454304922144e-01       1.488207143799e+02 
       4.622214006969e-01       1.268117196770e+02 
       4.800702491654e-01       1.061954216307e+02 
       4.991459272112e-01       8.757133404354e+01 
       5.196665217302e-01       7.127415046937e+01 
       5.419201087032e-01       5.661274172699e+01 
       5.662975451962e-01       4.361467633607e+01 
       5.933463737275e-01       3.241819401353e+01 
       6.238638458458e-01       2.279116775819e+01 
       6.590669257916e-01       1.480864679545e+01 
       7.009246080454e-01       8.440227376540e+00 
       7.528593308799e-01       3.769529484820e+00 
       8.213469537518e-01       9.119517301367e-01 
       9.196980813302e-01       6.249989604171e-04 
       1.075112183810e+00       7.231108543445e-01 
       1.322697471132e+00       1.318343194760e+00 
       1.662328205042e+00       6.324286946028e-01 
       2.092692408506e+00       6.142159961915e-02 
       2.634543445090e+00       5.334144907454e-03 
       3.316693691389e+00       8.418095317595e-03 
       4.175469971226e+00       8.947918343283e-05 
       5.256605252960e+00       1.661358496808e-04 
       6.617673932723e+00       2.680367062922e-08 
       8.331157880872e+00       4.912054855083e-07 
       1.048830636590e+01       8.216727016924e-08 
       1.320399541071e+01       6.297019187251e-10 
       1.662284535976e+01       1.639945451139e-09 
       2.092692243973e+01       4.897645376925e-10 
       2.634543445002e+01       1.706734879490e-10 
       3.316693691389e+01       5.081506694544e-11 
       4.175469971226e+01       1.313767784382e-11 
       5.256605252960e+01       2.585736256423e-12 
       6.617673932723e+01       3.276325895500e-13 
