# Matter power spectrum P(k) at redshift z=99
# for k=1.04775e-05 to 66.1767 h/Mpc,
# number of wavenumbers equal to 130
#    1:k (h/Mpc)              2:P (Mpc/h)^3        
       1.047750691046e-05       7.261927686901e-03 
       1.319039970183e-05       9.069258209427e-03 
       1.660572937635e-05       1.132639107666e-02 
       2.090537469327e-05       1.414527124572e-02 
       2.631830744443e-05       1.766569585528e-02 
       3.313278603720e-05       2.206225517771e-02 
       4.171170630578e-05       2.755297768550e-02 
       5.251192703764e-05       3.441013525829e-02 
       6.610859936996e-05       4.297372176344e-02 
       8.322579568497e-05       5.366826857377e-02 
       1.047750691046e-04       6.702379878327e-02 
       1.319039970183e-04       8.370193448214e-02 
       1.660572937635e-04       1.045283356247e-01 
       2.090537469327e-04       1.305329135176e-01 
       2.631830744443e-04       1.629994507927e-01 
       3.313278603720e-04       2.035264006246e-01 
       4.171170630578e-04       2.541004746264e-01 
       5.251192703764e-04       3.171839531017e-01 
       6.610859936996e-04       3.958147259438e-01 
       8.322579568497e-04       4.937136009873e-01 
       1.047750691046e-03       6.153841639710e-01 
       1.319039970183e-03       7.661720596021e-01 
       1.660572937635e-03       9.522588018446e-01 
       2.090537469327e-03       1.180312991353e+00 
       2.631830744443e-03       1.456802682846e+00 
       3.313278603720e-03       1.786503848459e+00 
       4.171170630578e-03       2.169896166262e+00 
       5.251192703764e-03       2.599430593316e+00 
       6.610859936996e-03       3.055668607894e+00 
       8.322579568497e-03       3.505725372363e+00 
       1.047750691046e-02       3.905490523943e+00 
       1.319039970183e-02       4.200914079219e+00 
       1.660572937633e-02       4.325061928539e+00 
       2.090537453514e-02       4.210193391777e+00 
       2.631818545635e-02       3.825144620130e+00 
       3.311571692125e-02       3.229041071959e+00 
       4.113809243311e-02       2.627691174939e+00 
       4.792590854610e-02       2.280748716369e+00 
       5.284436902701e-02       2.110035465284e+00 
       5.689644391095e-02       2.003490849199e+00 
       6.051252627066e-02       1.922990687116e+00 
       6.388413457411e-02       1.852662982910e+00 
       6.711249296401e-02       1.784490001627e+00 
       7.025823437965e-02       1.714199004026e+00 
       7.336115587705e-02       1.639733819970e+00 
       7.644928796912e-02       1.560580495164e+00 
       7.954353299775e-02       1.477374067574e+00 
       8.266024078725e-02       1.391608831865e+00 
       8.581273398637e-02       1.305373611901e+00 
       8.901225918437e-02       1.221037172288e+00 
       9.226860540985e-02       1.140987959256e+00 
       9.559052048996e-02       1.067362226782e+00 
       9.898599946599e-02       1.001795762260e+00 
       1.024624891378e-01       9.452848738378e-01 
       1.060270359164e-01       8.980511837725e-01 
       1.096863943056e-01       8.595116046906e-01 
       1.134471073830e-01       8.282984409669e-01 
       1.173155669539e-01       8.023583166961e-01 
       1.212980586983e-01       7.791170815151e-01 
       1.254007961065e-01       7.558036050900e-01 
       1.296299459934e-01       7.298647650231e-01 
       1.339916477160e-01       6.994739321890e-01 
       1.384920277736e-01       6.639583116017e-01 
       1.431372111762e-01       6.240261120402e-01 
       1.479333307714e-01       5.816434760841e-01 
       1.528865355934e-01       5.395699800977e-01 
       1.580029992204e-01       5.006936602479e-01 
       1.632889290723e-01       4.672769112436e-01 
       1.687505775527e-01       4.404123680680e-01 
       1.743942559171e-01       4.197420015967e-01 
       1.802263517371e-01       4.035336505371e-01 
       1.862533508214e-01       3.892321812870e-01 
       1.924818644494e-01       3.740033337388e-01 
       1.989186627765e-01       3.556713144677e-01 
       2.055707152847e-01       3.338696876173e-01 
       2.124452391818e-01       3.101359420695e-01 
       2.195497567139e-01       2.869936911869e-01 
       2.268921624510e-01       2.666801008274e-01 
       2.344808017550e-01       2.503538700025e-01 
       2.423245618548e-01       2.377039220882e-01 
       2.504329772620e-01       2.269816154369e-01 
       2.588163516754e-01       2.159851885636e-01 
       2.674858990930e-01       2.034137054393e-01 
       2.764539076010e-01       1.894668628681e-01 
       2.857339303080e-01       1.756271891314e-01 
       2.953410092148e-01       1.635702430129e-01 
       3.052919395542e-01       1.537778900329e-01 
       3.156055844677e-01       1.454018068495e-01 
       3.263032530092e-01       1.371208887513e-01 
       3.374091587054e-01       1.281737420689e-01 
       3.489509817175e-01       1.190441034830e-01 
       3.609605657343e-01       1.106808945874e-01 
       3.734747921333e-01       1.035194344349e-01 
       3.865366902904e-01       9.701658452224e-02 
       4.001968667448e-01       9.049159707683e-02 
       4.145153713076e-01       8.391409173620e-02 
       4.295641718077e-01       7.776928056136e-02 
       4.454304922144e-01       7.222086486433e-02 
       4.622214006969e-01       6.697385983161e-02 
       4.800702491654e-01       6.177328545013e-02 
       4.991459272112e-01       5.680918265668e-02 
       5.196665217302e-01       5.220028374494e-02 
       5.419201087032e-01       4.771821666744e-02 
       5.662975451962e-01       4.337399178760e-02 
       5.933463737275e-01       3.922006433903e-02 
       6.238638458458e-01       3.514437257045e-02 
       6.590669257916e-01       3.115596327061e-02 
       7.009246080454e-01       2.718292397585e-02 
       7.528593308799e-01       2.317690359943e-02 
       8.213469537518e-01       1.905044722916e-02 
       9.196980813302e-01       1.472389456011e-02 
       1.075112183810e+00       1.026439439964e-02 
       1.322697471132e+00       6.301495478567e-03 
       1.662328205042e+00       3.636772080504e-03 
       2.092692408506e+00       2.064254542888e-03 
       2.634543445090e+00       1.155677760530e-03 
       3.316693691389e+00       6.368300219321e-04 
       4.175469971226e+00       3.440523325018e-04 
       5.256605252960e+00       1.810706096578e-04 
       6.617673932723e+00       9.187307032412e-05 
       8.331157880872e+00       4.420573056944e-05 
       1.048830636590e+01       1.963816769686e-05 
       1.320399541071e+01       7.697429622057e-06 
       1.662284535976e+01       2.444623110479e-06 
       2.092692243973e+01       5.156973952272e-07 
       2.634543445002e+01       3.179742532818e-08 
       3.316693691389e+01       1.168749846008e-08 
       4.175469971226e+01       3.941409924961e-08 
       5.256605252960e+01       2.646424662265e-08 
       6.617673932723e+01       6.039560149053e-09 
