# Matter power spectrum P(k) at redshift z=0
# for k=1.04775e-05 to 157.312 h/Mpc,
# number of wavenumbers equal to 257
#    1:k (h/Mpc)              2:P (Mpc/h)^3        
       1.047750691338e-05       5.020963906805e+01 
       1.131335172818e-05       5.407048937158e+01 
       1.221587619877e-05       5.822820724031e+01 
       1.319039970550e-05       6.270562047313e+01 
       1.424266598317e-05       6.752731476099e+01 
       1.537887697396e-05       7.271975715398e+01 
       1.660572938097e-05       7.831147101240e+01 
       1.793045413791e-05       8.433312302131e+01 
       1.936085902737e-05       9.081780130647e+01 
       2.090537469909e-05       9.780107457908e+01 
       2.257310435923e-05       1.053212938596e+02 
       2.437387742372e-05       1.134197268469e+02 
       2.631830745176e-05       1.221408285662e+02 
       2.841785470091e-05       1.315324590474e+02 
       3.068489367268e-05       1.416461671108e+02 
       3.313278604643e-05       1.525374479912e+02 
       3.577595943165e-05       1.642660516086e+02 
       3.862999240274e-05       1.768963429278e+02 
       4.171170631739e-05       1.904975997804e+02 
       4.503926445983e-05       2.051444243234e+02 
       4.863227909323e-05       2.209171412042e+02 
       5.251192705226e-05       2.379022266181e+02 
       5.670107455699e-05       2.561927841272e+02 
       6.122441198393e-05       2.758890478149e+02 
       6.610859938837e-05       2.970989214067e+02 
       7.138242363583e-05       3.199385559930e+02 
       7.707696806873e-05       3.445329727005e+02 
       8.322579570814e-05       3.710167323981e+02 
       8.986514707061e-05       3.995346444134e+02 
       9.703415376577e-05       4.302425389349e+02 
       1.047750691338e-04       4.633080773458e+02 
       1.131335172818e-04       4.989116273445e+02 
       1.221587619877e-04       5.372471938787e+02 
       1.319039970550e-04       5.785234116754e+02 
       1.424266598317e-04       6.229645933204e+02 
       1.537887697396e-04       6.708118487478e+02 
       1.660572938097e-04       7.223242657738e+02 
       1.793045413791e-04       7.777801571134e+02 
       1.936085902737e-04       8.374783638364e+02 
       2.090537469909e-04       9.017396277711e+02 
       2.257310435923e-04       9.709080297651e+02 
       2.437387742372e-04       1.045352453373e+03 
       2.631830745176e-04       1.125468127721e+03 
       2.841785470091e-04       1.211678185928e+03 
       3.068489367268e-04       1.304435256065e+03 
       3.313278604643e-04       1.404223062923e+03 
       3.577595943165e-04       1.511558029577e+03 
       3.862999240274e-04       1.626990852555e+03 
       4.171170631739e-04       1.751108045601e+03 
       4.503926445983e-04       1.884533404753e+03 
       4.863227909323e-04       2.027929406956e+03 
       5.251192705226e-04       2.181998483911e+03 
       5.670107455699e-04       2.347484146065e+03 
       6.122441198393e-04       2.525171925192e+03 
       6.610859938837e-04       2.715890054973e+03 
       7.138242363583e-04       2.920509779313e+03 
       7.707696806873e-04       3.139945208039e+03 
       8.322579570814e-04       3.375152477000e+03 
       8.986514707061e-04       3.627128020437e+03 
       9.703415376577e-04       3.896905669481e+03 
       1.047750691338e-03       4.185552452564e+03 
       1.131335172818e-03       4.494162775495e+03 
       1.221587619877e-03       4.823851150485e+03 
       1.319039970550e-03       5.175743278555e+03 
       1.424266598317e-03       5.551020298455e+03 
       1.537887697396e-03       5.950789185097e+03 
       1.660572938097e-03       6.376124149565e+03 
       1.793045413791e-03       6.828075235879e+03 
       1.936085902737e-03       7.307627050026e+03 
       2.090537469909e-03       7.815673957577e+03 
       2.257310435923e-03       8.352992920863e+03 
       2.437387742372e-03       8.920214303273e+03 
       2.631830745176e-03       9.517787162392e+03 
       2.841785470091e-03       1.014594130061e+04 
       3.068489367268e-03       1.080465135617e+04 
       3.313278604643e-03       1.149358238295e+04 
       3.577595943165e-03       1.221204585153e+04 
       3.862999240274e-03       1.295893664113e+04 
       4.171170631739e-03       1.373267335310e+04 
       4.503926445983e-03       1.453113495447e+04 
       4.863227909323e-03       1.535157108479e+04 
       5.251192705226e-03       1.619066143665e+04 
       5.670107455699e-03       1.704433873206e+04 
       6.122441198393e-03       1.790758157466e+04 
       6.610859938837e-03       1.877462243928e+04 
       7.138242363583e-03       1.963874675002e+04 
       7.707696806873e-03       2.049217364745e+04 
       8.322579570814e-03       2.132608707202e+04 
       8.986514707061e-03       2.213055835526e+04 
       9.703415376577e-03       2.289447079306e+04 
       1.047750691338e-02       2.360549406689e+04 
       1.131335172818e-02       2.425023799083e+04 
       1.221587619877e-02       2.481424489257e+04 
       1.319039970550e-02       2.528219745497e+04 
       1.424266598317e-02       2.563814753740e+04 
       1.537887697392e-02       2.586607149812e+04 
       1.660572938023e-02       2.595026521323e+04 
       1.793045412706e-02       2.587634709364e+04 
       1.936085890181e-02       2.563218633578e+04 
       2.090537352463e-02       2.520935241190e+04 
       2.257309535333e-02       2.460443695931e+04 
       2.437382002918e-02       2.382087093284e+04 
       2.631799944462e-02       2.287042216815e+04 
       2.841644545389e-02       2.177446446934e+04 
       3.067933355377e-02       2.056552776457e+04 
       3.311368470740e-02       1.928726642170e+04 
       3.571840443502e-02       1.799396234590e+04 
       3.847720348444e-02       1.674677847179e+04 
       4.135335538431e-02       1.560451677237e+04 
       4.429361667738e-02       1.461028635740e+04 
       4.724366439141e-02       1.378045511977e+04 
       5.016480835311e-02       1.310493867098e+04 
       5.303989620246e-02       1.255705299208e+04 
       5.586870669566e-02       1.210410623329e+04 
       5.866042680613e-02       1.171450462587e+04 
       6.142798932958e-02       1.136030550787e+04 
       6.418496440164e-02       1.101838264869e+04 
       6.694418833788e-02       1.067050451336e+04 
       6.971731106057e-02       1.030337546053e+04 
       7.251476155766e-02       9.908817502454e+03 
       7.534587671527e-02       9.483532031747e+03 
       7.821907666265e-02       9.029292673680e+03 
       8.114203772912e-02       8.552098907763e+03 
       8.412184535029e-02       8.061676337015e+03 
       8.716512279304e-02       7.570540357652e+03 
       9.027813695930e-02       7.092246616672e+03 
       9.346688431697e-02       6.640290562211e+03 
       9.673716028275e-02       6.226472218319e+03 
       1.000946150830e-01       5.859691850893e+03 
       1.035447986537e-01       5.545021948645e+03 
       1.070931966762e-01       5.282885177133e+03 
       1.107452594425e-01       5.069168054373e+03 
       1.145064249153e-01       4.894983067386e+03 
       1.183821370918e-01       4.747564040623e+03 
       1.223778605862e-01       4.611437159190e+03 
       1.264990921987e-01       4.470310405865e+03 
       1.307513701367e-01       4.309954543816e+03 
       1.351402814784e-01       4.121067674302e+03 
       1.396714684203e-01       3.901745598041e+03 
       1.443506338194e-01       3.658329248238e+03 
       1.491835465229e-01       3.404180897280e+03 
       1.541760469708e-01       3.156353921487e+03 
       1.593340535561e-01       2.931636969796e+03 
       1.646635702297e-01       2.742050038433e+03 
       1.701706958456e-01       2.591924540941e+03 
       1.758616357459e-01       2.476904408188e+03 
       1.817427160982e-01       2.384840699470e+03 
       1.878204015065e-01       2.300011444590e+03 
       1.941013164283e-01       2.205406796908e+03 
       2.005922709503e-01       2.090463635785e+03 
       2.073002914972e-01       1.956108495939e+03 
       2.142326570816e-01       1.813837426298e+03 
       2.213969417533e-01       1.678929557675e+03 
       2.288010639706e-01       1.563490050646e+03 
       2.364533437147e-01       1.472327805858e+03 
       2.443625682930e-01       1.401152804750e+03 
       2.525380679504e-01       1.338050560714e+03 
       2.609898026346e-01       1.270536875496e+03 
       2.697284615565e-01       1.193017851413e+03 
       2.787655775689e-01       1.108975981427e+03 
       2.881136588829e-01       1.028406181893e+03 
       2.977863412677e-01       9.601177759757e+02 
       3.077985646929e-01       9.046610336147e+02 
       3.181667794071e-01       8.557798964843e+02 
       3.289091877812e-01       8.058220552128e+02 
       3.400460299658e-01       7.520267988953e+02 
       3.515999236474e-01       6.985599115388e+02 
       3.635962711085e-01       6.507041121717e+02 
       3.760637506334e-01       6.097605783437e+02 
       3.890349143879e-01       5.717718344127e+02 
       4.025469216825e-01       5.334226309847e+02 
       4.166424456376e-01       4.952749280431e+02 
       4.313708035863e-01       4.601132540378e+02 
       4.467893782977e-01       4.284230585731e+02 
       4.629654199663e-01       3.984211301443e+02 
       4.799783501994e-01       3.688928327662e+02 
       4.979227319373e-01       3.408925738380e+02 
       5.169121270864e-01       3.151383754381e+02 
       5.370841404489e-01       2.904935033636e+02 
       5.586070464571e-01       2.667661208469e+02 
       5.816885094930e-01       2.444732731586e+02 
       6.065870144995e-01       2.232347739458e+02 
       6.336266468475e-01       2.028807164968e+02 
       6.632156059511e-01       1.835539706392e+02 
       6.958678639262e-01       1.650339576435e+02 
       7.322247985589e-01       1.473799306245e+02 
       7.730680195113e-01       1.305226599425e+02 
       8.193049553677e-01       1.145253968029e+02 
       8.718988016039e-01       9.946294725671e+01 
       9.317218031081e-01       8.548519667234e+01 
       9.993660908989e-01       7.276913534763e+01 
       1.075037110174e+00       6.145766177935e+01 
       1.158653485707e+00       5.160867485709e+01 
       1.250099157308e+00       4.317784079263e+01 
       1.349432401273e+00       3.603498191060e+01 
       1.456947457397e+00       3.002163930154e+01 
       1.573135111331e+00       2.497624058359e+01 
       1.698621895592e+00       2.075178781677e+01 
       1.834127512934e+00       1.722012467625e+01 
       1.980444934528e+00       1.427136213726e+01 
       2.138435191726e+00       1.181242811448e+01 
       2.309029199186e+00       9.764455557600e+00 
       2.493232377687e+00       8.060824241423e+00 
       2.692130395285e+00       6.645225347025e+00 
       2.906895534573e+00       5.470355050430e+00 
       3.138793597714e+00       4.496369845084e+00 
       3.389191366484e+00       3.689858055241e+00 
       3.659564657905e+00       3.022833794094e+00 
       3.951507022538e+00       2.471784465702e+00 
       4.266739136701e+00       2.017161747893e+00 
       4.607118943941e+00       1.642537079679e+00 
       4.974652605557e+00       1.334253409711e+00 
       5.371506324689e+00       1.080934305902e+00 
       5.800019113685e+00       8.730984209156e-01 
       6.262716579983e+00       7.028657807434e-01 
       6.762325811764e+00       5.637058008533e-01 
       7.301791451110e+00       4.501755368772e-01 
       7.884293049406e+00       3.577800386809e-01 
       8.513263807261e+00       2.827867669923e-01 
       9.192410809424e+00       2.221122291232e-01 
       9.925736873929e+00       1.731989746666e-01 
       1.071756414427e+01       1.339405278776e-01 
       1.157255956364e+01       1.025876151835e-01 
       1.249576238137e+01       7.770331651040e-02 
       1.349261385375e+01       5.809023778946e-02 
       1.456898931416e+01       4.276689879251e-02 
       1.573123280165e+01       3.091793986864e-02 
       1.698619445202e+01       2.187111630789e-02 
       1.834127087176e+01       1.506917694718e-02 
       1.980444873285e+01       1.005157868169e-02 
       2.138435184532e+01       6.435907474110e-03 
       2.309029198506e+01       3.908872655322e-03 
       2.493232377636e+01       2.210376225447e-03 
       2.692130395282e+01       1.128084254003e-03 
       2.906895534573e+01       4.896352390965e-04 
       3.138793597714e+01       1.569686800208e-04 
       3.389191366484e+01       2.192287833924e-05 
       3.659564657905e+01       2.325858147542e-06 
       3.951507022538e+01       3.857673880797e-05 
       4.266739136701e+01       9.038837466915e-05 
       4.607118943941e+01       1.334836688107e-04 
       4.974652605557e+01       1.563449994954e-04 
       5.371506324689e+01       1.569501306097e-04 
       5.800019113685e+01       1.392902393201e-04 
       6.262716579983e+01       1.105078283393e-04 
       6.762325811764e+01       7.824473166201e-05 
       7.301791451110e+01       4.877633917470e-05 
       7.884293049406e+01       2.596771916539e-05 
       8.513263807261e+01       1.106959921665e-05 
       9.192410809424e+01       3.217411084124e-06 
       9.925736873929e+01       3.297872933550e-07 
       1.071756414427e+02       8.614203199307e-08 
       1.157255956364e+02       6.615576563522e-07 
       1.249576238137e+02       1.050484434553e-06 
       1.349261385375e+02       9.928979553137e-07 
       1.456898931416e+02       6.575148213191e-07 
       1.573123280165e+02       3.063351758131e-07 
