# Matter power spectrum P(k) at redshift z=0
# for k=1.04775e-05 to 157.312 h/Mpc,
# number of wavenumbers equal to 257
#    1:k (h/Mpc)              2:P (Mpc/h)^3        
       1.047750691338e-05       5.020963906804e+01 
       1.131335172818e-05       5.407048937148e+01 
       1.221587619877e-05       5.822820724029e+01 
       1.319039970550e-05       6.270562047247e+01 
       1.424266598317e-05       6.752731476098e+01 
       1.537887697396e-05       7.271975715395e+01 
       1.660572938097e-05       7.831147101246e+01 
       1.793045413791e-05       8.433312302135e+01 
       1.936085902737e-05       9.081780130646e+01 
       2.090537469909e-05       9.780107449256e+01 
       2.257310435923e-05       1.053212938596e+02 
       2.437387742372e-05       1.134197268469e+02 
       2.631830745176e-05       1.221408285624e+02 
       2.841785470091e-05       1.315324590474e+02 
       3.068489367268e-05       1.416461671358e+02 
       3.313278604643e-05       1.525374478896e+02 
       3.577595943165e-05       1.642660517235e+02 
       3.862999240274e-05       1.768963429378e+02 
       4.171170631739e-05       1.904975997820e+02 
       4.503926445983e-05       2.051444243234e+02 
       4.863227909323e-05       2.209171412049e+02 
       5.251192705226e-05       2.379022266146e+02 
       5.670107455699e-05       2.561927841239e+02 
       6.122441198393e-05       2.758890479571e+02 
       6.610859938837e-05       2.970989213980e+02 
       7.138242363583e-05       3.199385559930e+02 
       7.707696806873e-05       3.445329727006e+02 
       8.322579570814e-05       3.710167324011e+02 
       8.986514707061e-05       3.995346444121e+02 
       9.703415376577e-05       4.302425389349e+02 
       1.047750691338e-04       4.633080773458e+02 
       1.131335172818e-04       4.989116271553e+02 
       1.221587619877e-04       5.372471938794e+02 
       1.319039970550e-04       5.785234116883e+02 
       1.424266598317e-04       6.229645933131e+02 
       1.537887697396e-04       6.708118487511e+02 
       1.660572938097e-04       7.223242657764e+02 
       1.793045413791e-04       7.777801571270e+02 
       1.936085902737e-04       8.374783638365e+02 
       2.090537469909e-04       9.017396276753e+02 
       2.257310435923e-04       9.709080297651e+02 
       2.437387742372e-04       1.045352453376e+03 
       2.631830745176e-04       1.125468127721e+03 
       2.841785470091e-04       1.211678185928e+03 
       3.068489367268e-04       1.304435256065e+03 
       3.313278604643e-04       1.404223062921e+03 
       3.577595943165e-04       1.511558029577e+03 
       3.862999240274e-04       1.626990852555e+03 
       4.171170631739e-04       1.751108045602e+03 
       4.503926445983e-04       1.884533404755e+03 
       4.863227909323e-04       2.027929406956e+03 
       5.251192705226e-04       2.181998483913e+03 
       5.670107455699e-04       2.347484146066e+03 
       6.122441198393e-04       2.525171925196e+03 
       6.610859938837e-04       2.715890054979e+03 
       7.138242363583e-04       2.920509779320e+03 
       7.707696806873e-04       3.139945208051e+03 
       8.322579570814e-04       3.375152477018e+03 
       8.986514707061e-04       3.627128020462e+03 
       9.703415376577e-04       3.896905669504e+03 
       1.047750691338e-03       4.185552452612e+03 
       1.131335172818e-03       4.494162775569e+03 
       1.221587619877e-03       4.823851150590e+03 
       1.319039970550e-03       5.175743278704e+03 
       1.424266598317e-03       5.551020298674e+03 
       1.537887697396e-03       5.950789185421e+03 
       1.660572938097e-03       6.376124150041e+03 
       1.793045413791e-03       6.828075236574e+03 
       1.936085902737e-03       7.307627051036e+03 
       2.090537469909e-03       7.815673959033e+03 
       2.257310435923e-03       8.352992922956e+03 
       2.437387742372e-03       8.920214306316e+03 
       2.631830745176e-03       9.517787166649e+03 
       2.841785470091e-03       1.014594130665e+04 
       3.068489367268e-03       1.080465136469e+04 
       3.313278604643e-03       1.149358239494e+04 
       3.577595943165e-03       1.221204586833e+04 
       3.862999240274e-03       1.295893666459e+04 
       4.171170631739e-03       1.373267338570e+04 
       4.503926445983e-03       1.453113499967e+04 
       4.863227909323e-03       1.535157115148e+04 
       5.251192705226e-03       1.619066154783e+04 
       5.670107455699e-03       1.704433881207e+04 
       6.122441198393e-03       1.790758125196e+04 
       6.610859938837e-03       1.877461997037e+04 
       7.138242363583e-03       1.963874651557e+04 
       7.707696806873e-03       2.049217385532e+04 
       8.322579570814e-03       2.132608018627e+04 
       8.986514707061e-03       2.213056717245e+04 
       9.703415376577e-03       2.289447302693e+04 
       1.047750691338e-02       2.360549527659e+04 
       1.131335172818e-02       2.425024120870e+04 
       1.221587619877e-02       2.481424708751e+04 
       1.319039970550e-02       2.528219987258e+04 
       1.424266598317e-02       2.563815137677e+04 
       1.537887697392e-02       2.586607645421e+04 
       1.660572938023e-02       2.595027121541e+04 
       1.793045412706e-02       2.587635573958e+04 
       1.936085890181e-02       2.563219789853e+04 
       2.090537352463e-02       2.520936535259e+04 
       2.257309535333e-02       2.460445475578e+04 
       2.437382002918e-02       2.382089241215e+04 
       2.631799944462e-02       2.287044905964e+04 
       2.841644545389e-02       2.177449872969e+04 
       3.067933355377e-02       2.056556797994e+04 
       3.311368470740e-02       1.928731510786e+04 
       3.571840443502e-02       1.799402036489e+04 
       3.847720348444e-02       1.674684732466e+04 
       4.135335538431e-02       1.560459838538e+04 
       4.429361667738e-02       1.461037869136e+04 
       4.724366439141e-02       1.378056011939e+04 
       5.016480835311e-02       1.310505500627e+04 
       5.303989620246e-02       1.255718115849e+04 
       5.586870669566e-02       1.210423481118e+04 
       5.866042680613e-02       1.171465527323e+04 
       6.142798932958e-02       1.136046594141e+04 
       6.418496440164e-02       1.101857301816e+04 
       6.694418833788e-02       1.067067547630e+04 
       6.971731106057e-02       1.030356166367e+04 
       7.251476155766e-02       9.908992327539e+03 
       7.534587671527e-02       9.483743301677e+03 
       7.821907666265e-02       9.029513901251e+03 
       8.114203772912e-02       8.552291403057e+03 
       8.412184535029e-02       8.061894479559e+03 
       8.716512279304e-02       7.570737344323e+03 
       9.027813695930e-02       7.092469956544e+03 
       9.346688431697e-02       6.640537173366e+03 
       9.673716028275e-02       6.226703514056e+03 
       1.000946150830e-01       5.859927714411e+03 
       1.035447986537e-01       5.545278450403e+03 
       1.070931966762e-01       5.283135552370e+03 
       1.107452594425e-01       5.069419878972e+03 
       1.145064249153e-01       4.895243401126e+03 
       1.183821370918e-01       4.747839745892e+03 
       1.223778605862e-01       4.611717300137e+03 
       1.264990921987e-01       4.470606233270e+03 
       1.307513701367e-01       4.310250217779e+03 
       1.351402814784e-01       4.121354222857e+03 
       1.396714684203e-01       3.902040781630e+03 
       1.443506338194e-01       3.658640192257e+03 
       1.491835465229e-01       3.404485018073e+03 
       1.541760469708e-01       3.156666361234e+03 
       1.593340535561e-01       2.931945069916e+03 
       1.646635702297e-01       2.742355781180e+03 
       1.701706958456e-01       2.592238381571e+03 
       1.758616357459e-01       2.477226362373e+03 
       1.817427160982e-01       2.385166917034e+03 
       1.878204015065e-01       2.300350860356e+03 
       1.941013164283e-01       2.205745052750e+03 
       2.005922709503e-01       2.090802072763e+03 
       2.073002914972e-01       1.956450106481e+03 
       2.142326570816e-01       1.814174210750e+03 
       2.213969417533e-01       1.679268484944e+03 
       2.288010639706e-01       1.563828738332e+03 
       2.364533437147e-01       1.472668595877e+03 
       2.443625682930e-01       1.401507785906e+03 
       2.525380679504e-01       1.338397990191e+03 
       2.609898026346e-01       1.270886600395e+03 
       2.697284615565e-01       1.193367183889e+03 
       2.787655775689e-01       1.109325773641e+03 
       2.881136588829e-01       1.028753947131e+03 
       2.977863412677e-01       9.604647739338e+02 
       3.077985646929e-01       9.050071562886e+02 
       3.181667794071e-01       8.561279670441e+02 
       3.289091877812e-01       8.061719888707e+02 
       3.400460299658e-01       7.523757943994e+02 
       3.515999236474e-01       6.989078820882e+02 
       3.635962711085e-01       6.510461834424e+02 
       3.760637506334e-01       6.101064994251e+02 
       3.890349143879e-01       5.721172760426e+02 
       4.025469216825e-01       5.337674577864e+02 
       4.166424456376e-01       4.956170569360e+02 
       4.313708035863e-01       4.604544352294e+02 
       4.467893782977e-01       4.287624202274e+02 
       4.629654199663e-01       3.987586957526e+02 
       4.799783501994e-01       3.692275313967e+02 
       4.979227319373e-01       3.412260957199e+02 
       5.169121270864e-01       3.154695087982e+02 
       5.370841404489e-01       2.908217782162e+02 
       5.586070464571e-01       2.670921613506e+02 
       5.816885094930e-01       2.447963735187e+02 
       6.065870144995e-01       2.235548032705e+02 
       6.336266468475e-01       2.031972377706e+02 
       6.632156059511e-01       1.838660143308e+02 
       6.958678639262e-01       1.653427339656e+02 
       7.322247985589e-01       1.476839359142e+02 
       7.730680195113e-01       1.308223623813e+02 
       8.193049553677e-01       1.148199426983e+02 
       8.718988016039e-01       9.975176427560e+01 
       9.317218031081e-01       8.576722044121e+01 
       9.993660908989e-01       7.304461653779e+01 
       1.075037110174e+00       6.172619579620e+01 
       1.158653485707e+00       5.186962387926e+01 
       1.250099157308e+00       4.343130941554e+01 
       1.349432401273e+00       3.628085335175e+01 
       1.456947457397e+00       3.025997388779e+01 
       1.573135111331e+00       2.520674822730e+01 
       1.698621895592e+00       2.097458180190e+01 
       1.834127512934e+00       1.743530896068e+01 
       1.980444934528e+00       1.447892291810e+01 
       2.138435191726e+00       1.201253714419e+01 
       2.309029199186e+00       9.957070716778e+00 
       2.493232377687e+00       8.246020474029e+00 
       2.692130395285e+00       6.823101291421e+00 
       2.906895534573e+00       5.641040525620e+00 
       3.138793597714e+00       4.659927675489e+00 
       3.389191366484e+00       3.846394273642e+00 
       3.659564657905e+00       3.172469728304e+00 
       3.951507022538e+00       2.614627321546e+00 
       4.266739136701e+00       2.153343877287e+00 
       4.607118943941e+00       1.772127149281e+00 
       4.974652605557e+00       1.457384918402e+00 
       5.371506324689e+00       1.197713584682e+00 
       5.800019113685e+00       9.836233513556e-01 
       6.262716579983e+00       8.072819743147e-01 
       6.762325811764e+00       6.620976614472e-01 
       7.301791451110e+00       5.426744937127e-01 
       7.884293049406e+00       4.444856108367e-01 
       8.513263807261e+00       3.638295607611e-01 
       9.192410809424e+00       2.976047166600e-01 
       9.925736873929e+00       2.432711817118e-01 
       1.071756414427e+01       1.987159215043e-01 
       1.157255956364e+01       1.622064211321e-01 
       1.249576238137e+01       1.323064927562e-01 
       1.349261385375e+01       1.078337398929e-01 
       1.456898931416e+01       8.781742537448e-02 
       1.573123280165e+01       7.145514230987e-02 
       1.698619445202e+01       5.808717003504e-02 
       1.834127087176e+01       4.717365047589e-02 
       1.980444873285e+01       3.826951097914e-02 
       2.138435184532e+01       3.100970421626e-02 
       2.309029198506e+01       2.509478646132e-02 
       2.493232377636e+01       2.027884135841e-02 
       2.692130395282e+01       1.636143149411e-02 
       2.906895534573e+01       1.317728567908e-02 
       3.138793597714e+01       1.059150097178e-02 
       3.389191366484e+01       8.494006480571e-03 
       3.659564657905e+01       6.794391409337e-03 
       3.951507022538e+01       5.419278418550e-03 
       4.266739136701e+01       4.308054428917e-03 
       4.607118943941e+01       3.411756493307e-03 
       4.974652605557e+01       2.690183052147e-03 
       5.371506324689e+01       2.110712482522e-03 
       5.800019113685e+01       1.646538383686e-03 
       6.262716579983e+01       1.275933064260e-03 
       6.762325811764e+01       9.811608778989e-04 
       7.301791451110e+01       7.477696677965e-04 
       7.884293049406e+01       5.640188226432e-04 
       8.513263807261e+01       4.202616665513e-04 
       9.192410809424e+01       3.086766754124e-04 
       9.925736873929e+01       2.229118592259e-04 
       1.071756414427e+02       1.577581853630e-04 
       1.157255956364e+02       1.089573880689e-04 
       1.249576238137e+02       7.305009205934e-05 
       1.349261385375e+02       4.720577847244e-05 
       1.456898931416e+02       2.910644780713e-05 
       1.573123280165e+02       1.687524050145e-05 
