# Matter power spectrum P(k) at redshift z=0
# for k=1.04775e-05 to 66.1767 h/Mpc,
# number of wavenumbers equal to 130
#    1:k (h/Mpc)              2:P (Mpc/h)^3        
       1.047750691046e-05       5.020964811314e+01 
       1.319039970183e-05       6.270562594780e+01 
       1.660572937635e-05       7.831147247912e+01 
       2.090537469327e-05       9.780108069295e+01 
       2.631830744443e-05       1.221408203809e+02 
       3.313278603720e-05       1.525374501932e+02 
       4.171170630578e-05       1.904975994010e+02 
       5.251192703764e-05       2.379022224249e+02 
       6.610859936996e-05       2.970989227882e+02 
       8.322579568497e-05       3.710167318946e+02 
       1.047750691046e-04       4.633080766742e+02 
       1.319039970183e-04       5.785234129342e+02 
       1.660572937635e-04       7.223242666092e+02 
       2.090537469327e-04       9.017396271824e+02 
       2.631830744443e-04       1.125468123749e+03 
       3.313278603720e-04       1.404223053681e+03 
       4.171170630578e-04       1.751108028790e+03 
       5.251192703764e-04       2.181998448133e+03 
       6.610859936996e-04       2.715889983592e+03 
       8.322579568497e-04       3.375152337115e+03 
       1.047750691046e-03       4.185552174332e+03 
       1.319039970183e-03       5.175742738991e+03 
       1.660572937635e-03       6.376123051751e+03 
       2.090537469327e-03       7.815671862853e+03 
       2.631830744443e-03       9.517783069112e+03 
       3.313278603720e-03       1.149357460346e+04 
       4.171170630578e-03       1.373266002390e+04 
       5.251192703764e-03       1.619063614550e+04 
       6.610859936996e-03       1.877460416311e+04 
       8.322579568497e-03       2.132607231907e+04 
       1.047750691046e-02       2.360548838852e+04 
       1.319039970183e-02       2.528218871972e+04 
       1.660572937633e-02       2.595028260545e+04 
       2.090537453514e-02       2.520936745527e+04 
       2.631818545635e-02       2.287035751545e+04 
       3.311571692125e-02       1.928625522588e+04 
       4.113809243311e-02       1.568429273537e+04 
       4.792590854610e-02       1.361065285123e+04 
       5.284436902701e-02       1.259129773608e+04 
       5.689644391095e-02       1.195556066903e+04 
       6.051252627066e-02       1.147546481040e+04 
       6.388413457411e-02       1.105588667675e+04 
       6.711249296401e-02       1.064900930945e+04 
       7.025823437965e-02       1.022925954886e+04 
       7.336115587705e-02       9.784523108338e+03 
       7.644928796912e-02       9.311665426615e+03 
       7.954353299775e-02       8.814563686297e+03 
       8.266024078725e-02       8.302130058272e+03 
       8.581273398637e-02       7.786957486504e+03 
       8.901225918437e-02       7.283174070320e+03 
       9.226860540985e-02       6.805160687251e+03 
       9.559052048996e-02       6.365600820918e+03 
       9.898599946599e-02       5.974355009819e+03 
       1.024624891378e-01       5.637338592027e+03 
       1.060270359164e-01       5.355774477265e+03 
       1.096863943056e-01       5.126236241336e+03 
       1.134471073830e-01       4.940480411038e+03 
       1.173155669539e-01       4.786168825774e+03 
       1.212980586983e-01       4.647918499327e+03 
       1.254007961065e-01       4.509149687174e+03 
       1.296299459934e-01       4.354545834586e+03 
       1.339916477160e-01       4.173212182028e+03 
       1.384920277736e-01       3.961161619793e+03 
       1.431372111762e-01       3.722685380969e+03 
       1.479333307714e-01       3.469553774240e+03 
       1.528865355934e-01       3.218345031064e+03 
       1.580029992204e-01       2.986291274741e+03 
       1.632889290723e-01       2.786964504098e+03 
       1.687505775527e-01       2.626828403551e+03 
       1.743942559171e-01       2.503749408767e+03 
       1.802263517371e-01       2.407345729135e+03 
       1.862533508214e-01       2.322250718813e+03 
       1.924818644494e-01       2.231553509118e+03 
       1.989186627765e-01       2.122187725926e+03 
       2.055707152847e-01       1.992024612360e+03 
       2.124452391818e-01       1.850323928656e+03 
       2.195497567139e-01       1.712184232063e+03 
       2.268921624510e-01       1.590988510199e+03 
       2.344808017550e-01       1.493670097426e+03 
       2.423245618548e-01       1.418308985939e+03 
       2.504329772620e-01       1.354467032529e+03 
       2.588163516754e-01       1.288935546702e+03 
       2.674858990930e-01       1.213937856807e+03 
       2.764539076010e-01       1.130694651413e+03 
       2.857339303080e-01       1.048097741042e+03 
       2.953410092148e-01       9.761841406577e+02 
       3.052919395542e-01       9.178092693545e+02 
       3.156055844677e-01       8.679006825941e+02 
       3.263032530092e-01       8.185236430447e+02 
       3.374091587054e-01       7.651462685261e+02 
       3.489509817175e-01       7.106710482077e+02 
       3.609605657343e-01       6.607858690960e+02 
       3.734747921333e-01       6.180838254522e+02 
       3.865366902904e-01       5.793086271730e+02 
       4.001968667448e-01       5.403902118007e+02 
       4.145153713076e-01       5.011514002689e+02 
       4.295641718077e-01       4.644998165861e+02 
       4.454304922144e-01       4.314077362182e+02 
       4.622214006969e-01       4.001127272921e+02 
       4.800702491654e-01       3.690895290951e+02 
       4.991459272112e-01       3.394762738890e+02 
       5.196665217302e-01       3.119850998843e+02 
       5.419201087032e-01       2.852466902247e+02 
       5.662975451962e-01       2.593311036319e+02 
       5.933463737275e-01       2.345480014296e+02 
       6.238638458458e-01       2.102303697672e+02 
       6.590669257916e-01       1.864336012927e+02 
       7.009246080454e-01       1.627253542186e+02 
       7.528593308799e-01       1.388192679725e+02 
       8.213469537518e-01       1.141883552404e+02 
       9.196980813302e-01       8.835938659410e+01 
       1.075112183810e+00       6.172631290406e+01 
       1.322697471132e+00       3.804290082982e+01 
       1.662328205042e+00       2.209802898605e+01 
       2.092692408506e+00       1.266922882316e+01 
       2.634543445090e+00       7.203351400490e+00 
       3.316693691389e+00       4.065174743905e+00 
       4.175469971226e+00       2.278625758167e+00 
       5.256605252960e+00       1.269349133237e+00 
       6.617673932723e+00       7.031305635422e-01 
       8.331157880872e+00       3.874766686014e-01 
       1.048830636590e+01       2.125072566865e-01 
       1.320399541071e+01       1.160346357592e-01 
       1.662284535976e+01       6.309734361394e-02 
       2.092692243973e+01       3.417810258373e-02 
       2.634543445002e+01       1.844492669200e-02 
       3.316693691389e+01       9.918238133902e-03 
       4.175469971226e+01       5.313974571266e-03 
       5.256605252960e+01       2.836188173116e-03 
       6.617673932723e+01       1.507266158600e-03 
