# Matter power spectrum P(k) at redshift z=0
# for k=1.04775e-05 to 157.312 h/Mpc,
# number of wavenumbers equal to 257
#    1:k (h/Mpc)              2:P (Mpc/h)^3        
       1.047750691338e-05       5.020963906805e+01 
       1.131335172818e-05       5.407048937170e+01 
       1.221587619877e-05       5.822820724033e+01 
       1.319039970550e-05       6.270562047389e+01 
       1.424266598317e-05       6.752731476100e+01 
       1.537887697396e-05       7.271975715401e+01 
       1.660572938097e-05       7.831147101234e+01 
       1.793045413791e-05       8.433312302127e+01 
       1.936085902737e-05       9.081780130648e+01 
       2.090537469909e-05       9.780107394735e+01 
       2.257310435923e-05       1.053212938596e+02 
       2.437387742372e-05       1.134197268469e+02 
       2.631830745176e-05       1.221408285709e+02 
       2.841785470091e-05       1.315324590475e+02 
       3.068489367268e-05       1.416461664525e+02 
       3.313278604643e-05       1.525374480798e+02 
       3.577595943165e-05       1.642660514391e+02 
       3.862999240274e-05       1.768963429169e+02 
       4.171170631739e-05       1.904975997788e+02 
       4.503926445983e-05       2.051444243234e+02 
       4.863227909323e-05       2.209171412034e+02 
       5.251192705226e-05       2.379022266223e+02 
       5.670107455699e-05       2.561927841260e+02 
       6.122441198393e-05       2.758890478210e+02 
       6.610859938837e-05       2.970989214177e+02 
       7.138242363583e-05       3.199385559931e+02 
       7.707696806873e-05       3.445329727004e+02 
       8.322579570814e-05       3.710167323935e+02 
       8.986514707061e-05       3.995346444148e+02 
       9.703415376577e-05       4.302425389350e+02 
       1.047750691338e-04       4.633080773458e+02 
       1.131335172818e-04       4.989116272311e+02 
       1.221587619877e-04       5.372471938781e+02 
       1.319039970550e-04       5.785234116615e+02 
       1.424266598317e-04       6.229645933266e+02 
       1.537887697396e-04       6.708118487444e+02 
       1.660572938097e-04       7.223242657703e+02 
       1.793045413791e-04       7.777801570992e+02 
       1.936085902737e-04       8.374783640696e+02 
       2.090537469909e-04       9.017396283144e+02 
       2.257310435923e-04       9.709080297650e+02 
       2.437387742372e-04       1.045352453370e+03 
       2.631830745176e-04       1.125468127720e+03 
       2.841785470091e-04       1.211678185928e+03 
       3.068489367268e-04       1.304435256065e+03 
       3.313278604643e-04       1.404223062924e+03 
       3.577595943165e-04       1.511558029577e+03 
       3.862999240274e-04       1.626990852554e+03 
       4.171170631739e-04       1.751108045599e+03 
       4.503926445983e-04       1.884533404751e+03 
       4.863227909323e-04       2.027929406956e+03 
       5.251192705226e-04       2.181998483909e+03 
       5.670107455699e-04       2.347484146065e+03 
       6.122441198393e-04       2.525171925188e+03 
       6.610859938837e-04       2.715890054967e+03 
       7.138242363583e-04       2.920509779307e+03 
       7.707696806873e-04       3.139945208027e+03 
       8.322579570814e-04       3.375152476981e+03 
       8.986514707061e-04       3.627128020412e+03 
       9.703415376577e-04       3.896905669458e+03 
       1.047750691338e-03       4.185552452514e+03 
       1.131335172818e-03       4.494162775419e+03 
       1.221587619877e-03       4.823851150376e+03 
       1.319039970550e-03       5.175743278400e+03 
       1.424266598317e-03       5.551020298225e+03 
       1.537887697396e-03       5.950789184757e+03 
       1.660572938097e-03       6.376124149063e+03 
       1.793045413791e-03       6.828075235145e+03 
       1.936085902737e-03       7.307627048962e+03 
       2.090537469909e-03       7.815673956041e+03 
       2.257310435923e-03       8.352992918655e+03 
       2.437387742372e-03       8.920214300057e+03 
       2.631830745176e-03       9.517787157904e+03 
       2.841785470091e-03       1.014594129424e+04 
       3.068489367268e-03       1.080465134719e+04 
       3.313278604643e-03       1.149358237034e+04 
       3.577595943165e-03       1.221204583387e+04 
       3.862999240274e-03       1.295893661649e+04 
       4.171170631739e-03       1.373267331889e+04 
       4.503926445983e-03       1.453113490710e+04 
       4.863227909323e-03       1.535157102421e+04 
       5.251192705226e-03       1.619066170336e+04 
       5.670107455699e-03       1.704433565105e+04 
       6.122441198393e-03       1.790758146877e+04 
       6.610859938837e-03       1.877462028846e+04 
       7.138242363583e-03       1.963874541782e+04 
       7.707696806873e-03       2.049217307758e+04 
       8.322579570814e-03       2.132608627672e+04 
       8.986514707061e-03       2.213056993328e+04 
       9.703415376577e-03       2.289446988817e+04 
       1.047750691338e-02       2.360549276371e+04 
       1.131335172818e-02       2.425023682401e+04 
       1.221587619877e-02       2.481424256329e+04 
       1.319039970550e-02       2.528219390321e+04 
       1.424266598317e-02       2.563814426479e+04 
       1.537887697392e-02       2.586606575818e+04 
       1.660572938023e-02       2.595025881367e+04 
       1.793045412706e-02       2.587633866932e+04 
       1.936085890181e-02       2.563217585070e+04 
       2.090537352463e-02       2.520933472944e+04 
       2.257309535333e-02       2.460441954201e+04 
       2.437382002918e-02       2.382084879924e+04 
       2.631799944462e-02       2.287039517263e+04 
       2.841644545389e-02       2.177442935009e+04 
       3.067933355377e-02       2.056548823467e+04 
       3.311368470740e-02       1.928719446385e+04 
       3.571840443502e-02       1.799390467574e+04 
       3.847720348444e-02       1.674669712155e+04 
       4.135335538431e-02       1.560443663980e+04 
       4.429361667738e-02       1.461018249999e+04 
       4.724366439141e-02       1.378035247149e+04 
       5.016480835311e-02       1.310481799766e+04 
       5.303989620246e-02       1.255692845461e+04 
       5.586870669566e-02       1.210396577821e+04 
       5.866042680613e-02       1.171435938232e+04 
       6.142798932958e-02       1.136015754160e+04 
       6.418496440164e-02       1.101822055070e+04 
       6.694418833788e-02       1.067032554357e+04 
       6.971731106057e-02       1.030322175506e+04 
       7.251476155766e-02       9.908635944534e+03 
       7.534587671527e-02       9.483346772331e+03 
       7.821907666265e-02       9.029100738378e+03 
       8.114203772912e-02       8.551906169361e+03 
       8.412184535029e-02       8.061472545757e+03 
       8.716512279304e-02       7.570350740043e+03 
       9.027813695930e-02       7.092061641037e+03 
       9.346688431697e-02       6.640087589941e+03 
       9.673716028275e-02       6.226266259007e+03 
       1.000946150830e-01       5.859482848555e+03 
       1.035447986537e-01       5.544809891288e+03 
       1.070931966762e-01       5.282670637297e+03 
       1.107452594425e-01       5.068943333421e+03 
       1.145064249153e-01       4.894755477484e+03 
       1.183821370918e-01       4.747330271644e+03 
       1.223778605862e-01       4.611195828495e+03 
       1.264990921987e-01       4.470050553537e+03 
       1.307513701367e-01       4.309704460722e+03 
       1.351402814784e-01       4.120817643660e+03 
       1.396714684203e-01       3.901494231053e+03 
       1.443506338194e-01       3.658090026059e+03 
       1.491835465229e-01       3.403929492987e+03 
       1.541760469708e-01       3.156102267580e+03 
       1.593340535561e-01       2.931390898790e+03 
       1.646635702297e-01       2.741805722365e+03 
       1.701706958456e-01       2.591680014864e+03 
       1.758616357459e-01       2.476656332704e+03 
       1.817427160982e-01       2.384589950074e+03 
       1.878204015065e-01       2.299764661304e+03 
       1.941013164283e-01       2.205150490193e+03 
       2.005922709503e-01       2.090213723264e+03 
       2.073002914972e-01       1.955858278272e+03 
       2.142326570816e-01       1.813597220558e+03 
       2.213969417533e-01       1.678689080634e+03 
       2.288010639706e-01       1.563251542364e+03 
       2.364533437147e-01       1.472090915007e+03 
       2.443625682930e-01       1.400925389774e+03 
       2.525380679504e-01       1.337814714479e+03 
       2.609898026346e-01       1.270302904471e+03 
       2.697284615565e-01       1.192787831141e+03 
       2.787655775689e-01       1.108748804050e+03 
       2.881136588829e-01       1.028184653574e+03 
       2.977863412677e-01       9.599001174971e+02 
       3.077985646929e-01       9.044441490134e+02 
       3.181667794071e-01       8.555674615212e+02 
       3.289091877812e-01       8.056130835091e+02 
       3.400460299658e-01       7.518222858685e+02 
       3.515999236474e-01       6.983597072891e+02 
       3.635962711085e-01       6.505059199780e+02 
       3.760637506334e-01       6.095694121269e+02 
       3.890349143879e-01       5.715846404525e+02 
       4.025469216825e-01       5.332403158059e+02 
       4.166424456376e-01       4.950975959779e+02 
       4.313708035863e-01       4.599403322561e+02 
       4.467893782977e-01       4.282552423699e+02 
       4.629654199663e-01       3.982580793981e+02 
       4.799783501994e-01       3.687344580004e+02 
       4.979227319373e-01       3.407403807373e+02 
       5.169121270864e-01       3.149923815172e+02 
       5.370841404489e-01       2.903523971720e+02 
       5.586070464571e-01       2.666310541691e+02 
       5.816885094930e-01       2.443440884716e+02 
       6.065870144995e-01       2.231115147947e+02 
       6.336266468475e-01       2.027641955716e+02 
       6.632156059511e-01       1.834427262407e+02 
       6.958678639262e-01       1.649303104407e+02 
       7.322247985589e-01       1.472831758398e+02 
       7.730680195113e-01       1.304341343872e+02 
       8.193049553677e-01       1.144447937400e+02 
       8.718988016039e-01       9.939004555853e+01 
       9.317218031081e-01       8.542084888860e+01 
       9.993660908989e-01       7.271365774568e+01 
       1.075037110174e+00       6.141098267360e+01 
       1.158653485707e+00       5.157045829501e+01 
       1.250099157308e+00       4.314781028178e+01 
       1.349432401273e+00       3.601271888853e+01 
       1.456947457397e+00       3.000665683893e+01 
       1.573135111331e+00       2.496801343786e+01 
       1.698621895592e+00       2.074996051440e+01 
       1.834127512934e+00       1.722406687055e+01 
       1.980444934528e+00       1.428051534272e+01 
       2.138435191726e+00       1.182658280032e+01 
       2.309029199186e+00       9.782831415397e+00 
       2.493232377687e+00       8.083045331033e+00 
       2.692130395285e+00       6.670782043805e+00 
       2.906895534573e+00       5.498838212585e+00 
       3.138793597714e+00       4.527373116334e+00 
       3.389191366484e+00       3.722986761550e+00 
       3.659564657905e+00       3.057644174700e+00 
       3.951507022538e+00       2.507946226029e+00 
       4.266739136701e+00       2.054303966412e+00 
       4.607118943941e+00       1.680325946817e+00 
       4.974652605557e+00       1.372379308410e+00 
       5.371506324689e+00       1.119099960908e+00 
       5.800019113685e+00       9.110282542861e-01 
       6.262716579983e+00       7.403043282986e-01 
       6.762325811764e+00       6.004039397568e-01 
       7.301791451110e+00       4.859168229390e-01 
       7.884293049406e+00       3.923626448061e-01 
       8.513263807261e+00       3.160286824019e-01 
       9.192410809424e+00       2.538477250447e-01 
       9.925736873929e+00       2.032895097514e-01 
       1.071756414427e+01       1.622555076711e-01 
       1.157255956364e+01       1.290266244084e-01 
       1.249576238137e+01       1.021845983610e-01 
       1.349261385375e+01       8.055401423553e-02 
       1.456898931416e+01       6.317859870134e-02 
       1.573123280165e+01       4.926740804745e-02 
       1.698619445202e+01       3.817221998840e-02 
       1.834127087176e+01       2.936056582969e-02 
       1.980444873285e+01       2.239836884049e-02 
       2.138435184532e+01       1.692777515035e-02 
       2.309029198506e+01       1.265783682441e-02 
       2.493232377636e+01       9.350130067878e-03 
       2.692130395282e+01       6.810630737287e-03 
       2.906895534573e+01       4.880542801612e-03 
       3.138793597714e+01       3.431686635678e-03 
       3.389191366484e+01       2.359283735390e-03 
       3.659564657905e+01       1.579048980689e-03 
       3.951507022538e+01       1.022897580919e-03 
       4.266739136701e+01       6.362719925981e-04 
       4.607118943941e+01       3.757433512560e-04 
       4.974652605557e+01       2.070395305920e-04 
       5.371506324689e+01       1.034334905890e-04 
       5.800019113685e+01       4.438069390665e-05 
       6.262716579983e+01       1.445108656518e-05 
       6.762325811764e+01       2.331133174389e-06 
       7.301791451110e+01       4.942152217610e-08 
       7.884293049406e+01       2.265304731749e-06 
       8.513263807261e+01       5.669432839512e-06 
       9.192410809424e+01       8.465606053566e-06 
       9.925736873929e+01       9.901385668777e-06 
       1.071756414427e+02       9.914825710651e-06 
       1.157255956364e+02       8.833265457384e-06 
       1.249576238137e+02       7.104190518881e-06 
       1.349261385375e+02       5.185953528310e-06 
       1.456898931416e+02       3.421694532979e-06 
       1.573123280165e+02       2.014258020526e-06 
