# Matter power spectrum P(k) at redshift z=99
# for k=1.04775e-05 to 157.312 h/Mpc,
# number of wavenumbers equal to 257
#    1:k (h/Mpc)              2:P (Mpc/h)^3        
       1.047750691338e-05       7.261927095565e-03 
       1.131335172818e-05       7.820332151056e-03 
       1.221587619877e-05       8.421675382654e-03 
       1.319039970550e-05       9.069257738352e-03 
       1.424266598317e-05       9.766636451501e-03 
       1.537887697396e-05       1.051763973682e-02 
       1.660572938097e-05       1.132639250795e-02 
       1.793045413791e-05       1.219733201555e-02 
       1.936085902737e-05       1.313524187254e-02 
       2.090537469909e-05       1.414527085032e-02 
       2.257310435923e-05       1.523296544552e-02 
       2.437387742372e-05       1.640429654705e-02 
       2.631830745176e-05       1.766569603356e-02 
       2.841785470091e-05       1.902408711237e-02 
       3.068489367268e-05       2.048692967525e-02 
       3.313278604643e-05       2.206225467636e-02 
       3.577595943165e-05       2.375870883945e-02 
       3.862999240274e-05       2.558560669925e-02 
       4.171170631739e-05       2.755297672620e-02 
       4.503926445983e-05       2.967161933534e-02 
       4.863227909323e-05       3.195316455786e-02 
       5.251192705226e-05       3.441013466272e-02 
       5.670107455699e-05       3.705601741854e-02 
       6.122441198393e-05       3.990533413002e-02 
       6.610859938837e-05       4.297372242707e-02 
       7.138242363583e-05       4.627802055048e-02 
       7.707696806873e-05       4.983636160093e-02 
       8.322579570814e-05       5.366826787149e-02 
       8.986514707061e-05       5.779476319967e-02 
       9.703415376577e-05       6.223848222086e-02 
       1.047750691338e-04       6.702379825291e-02 
       1.131335172818e-04       7.217695031365e-02 
       1.221587619877e-04       7.772619030674e-02 
       1.319039970550e-04       8.370193380387e-02 
       1.424266598317e-04       9.013692507030e-02 
       1.537887697396e-04       9.706641130791e-02 
       1.660572938097e-04       1.045283343153e-01 
       1.793045413791e-04       1.125635329231e-01 
       1.936085902737e-04       1.212159592359e-01 
       2.090537469909e-04       1.305329107489e-01 
       2.257310435923e-04       1.405652819418e-01 
       2.437387742372e-04       1.513678275138e-01 
       2.631830745176e-04       1.629994475201e-01 
       2.841785470091e-04       1.755234890551e-01 
       3.068489367268e-04       1.890080645378e-01 
       3.313278604643e-04       2.035263977516e-01 
       3.577595943165e-04       2.191571778136e-01 
       3.862999240274e-04       2.359849423358e-01 
       4.171170631739e-04       2.541004713107e-01 
       4.503926445983e-04       2.736012061272e-01 
       4.863227909323e-04       2.945916774764e-01 
       5.251192705226e-04       3.171839507993e-01 
       5.670107455699e-04       3.414980769246e-01 
       6.122441198393e-04       3.676625416447e-01 
       6.610859938837e-04       3.958147273020e-01 
       7.138242363583e-04       4.261013332229e-01 
       7.707696806873e-04       4.586787881023e-01 
       8.322579570814e-04       4.937136113003e-01 
       8.986514707061e-04       5.313826962266e-01 
       9.703415376577e-04       5.718735177000e-01 
       1.047750691338e-03       6.153841926451e-01 
       1.131335172818e-03       6.621233623325e-01 
       1.221587619877e-03       7.123098743854e-01 
       1.319039970550e-03       7.661721263981e-01 
       1.424266598317e-03       8.239547181486e-01 
       1.537887697396e-03       8.859012282980e-01 
       1.660572938097e-03       9.522589495877e-01 
       1.793045413791e-03       1.023280284743e+00 
       1.936085902737e-03       1.099216542125e+00 
       2.090537469909e-03       1.180313285044e+00 
       2.257310435923e-03       1.266804486801e+00 
       2.437387742372e-03       1.358905328433e+00 
       2.631830745176e-03       1.456803285888e+00 
       2.841785470091e-03       1.560647662931e+00 
       3.068489367268e-03       1.670537010411e+00 
       3.313278604643e-03       1.786505039390e+00 
       3.577595943165e-03       1.908504409756e+00 
       3.862999240274e-03       2.036389468240e+00 
       4.171170631739e-03       2.169898252072e+00 
       4.503926445983e-03       2.308634490949e+00 
       4.863227909323e-03       2.452050673360e+00 
       5.251192705226e-03       2.599434679182e+00 
       5.670107455699e-03       2.749901123784e+00 
       6.122441198393e-03       2.902390054666e+00 
       6.610859938837e-03       3.055671264845e+00 
       7.138242363583e-03       3.208360116079e+00 
       7.707696806873e-03       3.358926642219e+00 
       8.322579570814e-03       3.505726984384e+00 
       8.986514707061e-03       3.647012302875e+00 
       9.703415376577e-03       3.780926157325e+00 
       1.047750691338e-02       3.905492851404e+00 
       1.131335172818e-02       4.018589787269e+00 
       1.221587619877e-02       4.117902837686e+00 
       1.319039970550e-02       4.200917633317e+00 
       1.424266598317e-02       4.264943616643e+00 
       1.537887697392e-02       4.307219592834e+00 
       1.660572938023e-02       4.325062242389e+00 
       1.793045412706e-02       4.316060166844e+00 
       1.936085890181e-02       4.278228571043e+00 
       2.090537352463e-02       4.210204163782e+00 
       2.257309535333e-02       4.111418356603e+00 
       2.437382002918e-02       3.982420443684e+00 
       2.631799944462e-02       3.825168070610e+00 
       2.841644545389e-02       3.643281453947e+00 
       3.067933355377e-02       3.442197774777e+00 
       3.311368470740e-02       3.229240552401e+00 
       3.571840443502e-02       3.013514985805e+00 
       3.847720348444e-02       2.805283237464e+00 
       4.135335538431e-02       2.614408826697e+00 
       4.429361667738e-02       2.448130059965e+00 
       4.724366439141e-02       2.309238263625e+00 
       5.016480835311e-02       2.196112544707e+00 
       5.303989620246e-02       2.104366955032e+00 
       5.586870669566e-02       2.028459441550e+00 
       5.866042680613e-02       1.963151892000e+00 
       6.142798932958e-02       1.903776054304e+00 
       6.418496440164e-02       1.846475344142e+00 
       6.694418833788e-02       1.788193428965e+00 
       6.971731106057e-02       1.726711478305e+00 
       7.251476155766e-02       1.660650066598e+00 
       7.534587671527e-02       1.589465259968e+00 
       7.821907666265e-02       1.513432093377e+00 
       8.114203772912e-02       1.433564229577e+00 
       8.412184535029e-02       1.351486093052e+00 
       8.716512279304e-02       1.269269157211e+00 
       9.027813695930e-02       1.189188451420e+00 
       9.346688431697e-02       1.113496200390e+00 
       9.673716028275e-02       1.044169593840e+00 
       1.000946150830e-01       9.827010245966e-01 
       1.035447986537e-01       9.299332542057e-01 
       1.070931966762e-01       8.859532913486e-01 
       1.107452594425e-01       8.500657359533e-01 
       1.145064249153e-01       8.207977987324e-01 
       1.183821370918e-01       7.960192068020e-01 
       1.223778605862e-01       7.731399625712e-01 
       1.264990921987e-01       7.494460075471e-01 
       1.307513701367e-01       7.225509338001e-01 
       1.351402814784e-01       6.909022046483e-01 
       1.396714684203e-01       6.541744296361e-01 
       1.443506338194e-01       6.134199346017e-01 
       1.491835465229e-01       5.708614036017e-01 
       1.541760469708e-01       5.293577163121e-01 
       1.593340535561e-01       4.917042690536e-01 
       1.646635702297e-01       4.599133498128e-01 
       1.701706958456e-01       4.347212323466e-01 
       1.758616357459e-01       4.154010293492e-01 
       1.817427160982e-01       3.999299315935e-01 
       1.878204015065e-01       3.856759256630e-01 
       1.941013164283e-01       3.698024831992e-01 
       2.005922709503e-01       3.505395996777e-01 
       2.073002914972e-01       3.280361009171e-01 
       2.142326570816e-01       3.042067818694e-01 
       2.213969417533e-01       2.816047446166e-01 
       2.288010639706e-01       2.622498884223e-01 
       2.364533437147e-01       2.469548747241e-01 
       2.443625682930e-01       2.350062743033e-01 
       2.525380679504e-01       2.244108466685e-01 
       2.609898026346e-01       2.130868005158e-01 
       2.697284615565e-01       2.000948352418e-01 
       2.787655775689e-01       1.860131665093e-01 
       2.881136588829e-01       1.725104100001e-01 
       2.977863412677e-01       1.610585268698e-01 
       3.077985646929e-01       1.517541111040e-01 
       3.181667794071e-01       1.435526636104e-01 
       3.289091877812e-01       1.351748467086e-01 
       3.400460299658e-01       1.261577392140e-01 
       3.515999236474e-01       1.171953459877e-01 
       3.635962711085e-01       1.091704218838e-01 
       3.760637506334e-01       1.023033150894e-01 
       3.890349143879e-01       9.593127359725e-02 
       4.025469216825e-01       8.950135121885e-02 
       4.166424456376e-01       8.310547843478e-02 
       4.313708035863e-01       7.720925327670e-02 
       4.467893782977e-01       7.189440383317e-02 
       4.629654199663e-01       6.686294147997e-02 
       4.799783501994e-01       6.191153656030e-02 
       4.979227319373e-01       5.721629852173e-02 
       5.169121270864e-01       5.289704676443e-02 
       5.370841404489e-01       4.876403685796e-02 
       5.586070464571e-01       4.478507782083e-02 
       5.816885094930e-01       4.104635693465e-02 
       6.065870144995e-01       3.748446661397e-02 
       6.336266468475e-01       3.407088158071e-02 
       6.632156059511e-01       3.082932330982e-02 
       6.958678639262e-01       2.772328082631e-02 
       7.322247985589e-01       2.476219397374e-02 
       7.730680195113e-01       2.193480355086e-02 
       8.193049553677e-01       1.925148854571e-02 
       8.718988016039e-01       1.672482440669e-02 
       9.317218031081e-01       1.437986248686e-02 
       9.993660908989e-01       1.224652652765e-02 
       1.075037110174e+00       1.034864162278e-02 
       1.158653485707e+00       8.695904753693e-03 
       1.250099157308e+00       7.280996252715e-03 
       1.349432401273e+00       6.082045800192e-03 
       1.456947457397e+00       5.072511819147e-03 
       1.573135111331e+00       4.225235993061e-03 
       1.698621895592e+00       3.515638204476e-03 
       1.834127512934e+00       2.922233776345e-03 
       1.980444934528e+00       2.426561697272e-03 
       2.138435191726e+00       2.013053397565e-03 
       2.309029199186e+00       1.668456929618e-03 
       2.493232377687e+00       1.381605752904e-03 
       2.692130395285e+00       1.143070319981e-03 
       2.906895534573e+00       9.449150568921e-04 
       3.138793597714e+00       7.804607741362e-04 
       3.389191366484e+00       6.441016117882e-04 
       3.659564657905e+00       5.311500851659e-04 
       3.951507022538e+00       4.376650002152e-04 
       4.266739136701e+00       3.603588744207e-04 
       4.607118943941e+00       2.964808224411e-04 
       4.974652605557e+00       2.437487440168e-04 
       5.371506324689e+00       2.002504635078e-04 
       5.800019113685e+00       1.643922773078e-04 
       6.262716579983e+00       1.348562684688e-04 
       6.762325811764e+00       1.105470218030e-04 
       7.301791451110e+00       9.055346423703e-05 
       7.884293049406e+00       7.412127146258e-05 
       8.513263807261e+00       6.062407922867e-05 
       9.192410809424e+00       4.954623920414e-05 
       9.925736873929e+00       4.046035383217e-05 
       1.071756414427e+01       3.301305289330e-05 
       1.157255956364e+01       2.691297539106e-05 
       1.249576238137e+01       2.191982353292e-05 
       1.349261385375e+01       1.783544771098e-05 
       1.456898931416e+01       1.449707129983e-05 
       1.573123280165e+01       1.177014419466e-05 
       1.698619445202e+01       9.544312070802e-06 
       1.834127087176e+01       7.729082465877e-06 
       1.980444873285e+01       6.249786882913e-06 
       2.138435184532e+01       5.045244038415e-06 
       2.309029198506e+01       4.065571688520e-06 
       2.493232377636e+01       3.269382904089e-06 
       2.692130395282e+01       2.623108081669e-06 
       2.906895534573e+01       2.099180774788e-06 
       3.138793597714e+01       1.674960444446e-06 
       3.389191366484e+01       1.332063518109e-06 
       3.659564657905e+01       1.055381623581e-06 
       3.951507022538e+01       8.325637869085e-07 
       4.266739136701e+01       6.535643774191e-07 
       4.607118943941e+01       5.101597736129e-07 
       4.974652605557e+01       3.956384807649e-07 
       5.371506324689e+01       3.045396621744e-07 
       5.800019113685e+01       2.323911017041e-07 
       6.262716579983e+01       1.755544892255e-07 
       6.762325811764e+01       1.310725624934e-07 
       7.301791451110e+01       9.652346094850e-08 
       7.884293049406e+01       6.993369173953e-08 
       8.513263807261e+01       4.970055624561e-08 
       9.192410809424e+01       3.450786411024e-08 
       9.925736873929e+01       2.329013414660e-08 
       1.071756414427e+02       1.517554582082e-08 
       1.157255956364e+02       9.456246188452e-09 
       1.249576238137e+02       5.556670234496e-09 
       1.349261385375e+02       3.011544229109e-09 
       1.456898931416e+02       1.448236320719e-09 
       1.573123280165e+02       5.709502163268e-10 
