# Matter power spectrum P(k) at redshift z=0
# for k=1.04775e-05 to 66.1767 h/Mpc,
# number of wavenumbers equal to 130
#    1:k (h/Mpc)              2:P (Mpc/h)^3        
       1.047750691046e-05       5.020964811309e+01 
       1.319039970183e-05       6.270562594787e+01 
       1.660572937635e-05       7.831147247912e+01 
       2.090537469327e-05       9.780108069294e+01 
       2.631830744443e-05       1.221408203809e+02 
       3.313278603720e-05       1.525374501932e+02 
       4.171170630578e-05       1.904975994010e+02 
       5.251192703764e-05       2.379022224249e+02 
       6.610859936996e-05       2.970989227882e+02 
       8.322579568497e-05       3.710167318946e+02 
       1.047750691046e-04       4.633080766742e+02 
       1.319039970183e-04       5.785234129337e+02 
       1.660572937635e-04       7.223242666092e+02 
       2.090537469327e-04       9.017396271824e+02 
       2.631830744443e-04       1.125468123750e+03 
       3.313278603720e-04       1.404223053681e+03 
       4.171170630578e-04       1.751108028789e+03 
       5.251192703764e-04       2.181998448133e+03 
       6.610859936996e-04       2.715889983593e+03 
       8.322579568497e-04       3.375152337115e+03 
       1.047750691046e-03       4.185552174334e+03 
       1.319039970183e-03       5.175742742891e+03 
       1.660572937635e-03       6.376123051751e+03 
       2.090537469327e-03       7.815671876799e+03 
       2.631830744443e-03       9.517783069111e+03 
       3.313278603720e-03       1.149357460346e+04 
       4.171170630578e-03       1.373266003169e+04 
       5.251192703764e-03       1.619063614550e+04 
       6.610859936996e-03       1.877460420517e+04 
       8.322579568497e-03       2.132607231735e+04 
       1.047750691046e-02       2.360548455733e+04 
       1.319039970183e-02       2.528218787089e+04 
       1.660572937633e-02       2.595029098043e+04 
       2.090537453514e-02       2.520934500588e+04 
       2.631818545635e-02       2.287032072108e+04 
       3.311571692125e-02       1.928634490410e+04 
       4.113809243311e-02       1.568421390985e+04 
       4.792590854610e-02       1.361065508388e+04 
       5.284436902701e-02       1.259131775675e+04 
       5.689644391095e-02       1.195555885968e+04 
       6.051252627066e-02       1.147548477825e+04 
       6.388413457411e-02       1.105590490734e+04 
       6.711249296401e-02       1.064898666346e+04 
       7.025823437965e-02       1.022929785653e+04 
       7.336115587705e-02       9.784552988980e+03 
       7.644928796912e-02       9.311664296458e+03 
       7.954353299775e-02       8.814527982309e+03 
       8.266024078725e-02       8.302124254570e+03 
       8.581273398637e-02       7.786958066071e+03 
       8.901225918437e-02       7.283157233009e+03 
       9.226860540985e-02       6.805164042882e+03 
       9.559052048996e-02       6.365594911374e+03 
       9.898599946599e-02       5.974396015438e+03 
       1.024624891378e-01       5.637338386093e+03 
       1.060270359164e-01       5.355795935262e+03 
       1.096863943056e-01       5.126231140051e+03 
       1.134471073830e-01       4.940468564078e+03 
       1.173155669539e-01       4.786161024444e+03 
       1.212980586983e-01       4.647943036096e+03 
       1.254007961065e-01       4.509144885421e+03 
       1.296299459934e-01       4.354539555549e+03 
       1.339916477160e-01       4.173228298340e+03 
       1.384920277736e-01       3.961158192045e+03 
       1.431372111762e-01       3.722684540152e+03 
       1.479333307714e-01       3.469543421657e+03 
       1.528865355934e-01       3.218341553438e+03 
       1.580029992204e-01       2.986287843108e+03 
       1.632889290723e-01       2.786961810048e+03 
       1.687505775527e-01       2.626826391852e+03 
       1.743942559171e-01       2.503757472824e+03 
       1.802263517371e-01       2.407347808774e+03 
       1.862533508214e-01       2.322252854029e+03 
       1.924818644494e-01       2.231549139975e+03 
       1.989186627765e-01       2.122186244419e+03 
       2.055707152847e-01       1.992025477492e+03 
       2.124452391818e-01       1.850322848912e+03 
       2.195497567139e-01       1.712181029815e+03 
       2.268921624510e-01       1.590990135198e+03 
       2.344808017550e-01       1.493668904424e+03 
       2.423245618548e-01       1.418307739225e+03 
       2.504329772620e-01       1.354465753654e+03 
       2.588163516754e-01       1.288934504799e+03 
       2.674858990930e-01       1.213938002229e+03 
       2.764539076010e-01       1.130691059276e+03 
       2.857339303080e-01       1.048097428711e+03 
       2.953410092148e-01       9.761822377416e+02 
       3.052919395542e-01       9.178102336073e+02 
       3.156055844677e-01       8.678990533174e+02 
       3.263032530092e-01       8.185268149067e+02 
       3.374091587054e-01       7.651427826473e+02 
       3.489509817175e-01       7.106728569777e+02 
       3.609605657343e-01       6.607862041029e+02 
       3.734747921333e-01       6.180851824197e+02 
       3.865366902904e-01       5.793099749241e+02 
       4.001968667448e-01       5.403925794180e+02 
       4.145153713076e-01       5.011497328035e+02 
       4.295641718077e-01       4.644978434083e+02 
       4.454304922144e-01       4.314075294404e+02 
       4.622214006969e-01       4.001133292092e+02 
       4.800702491654e-01       3.690899859699e+02 
       4.991459272112e-01       3.394761376146e+02 
       5.196665217302e-01       3.119853752395e+02 
       5.419201087032e-01       2.852466224904e+02 
       5.662975451962e-01       2.593300217515e+02 
       5.933463737275e-01       2.345479232377e+02 
       6.238638458458e-01       2.102311637892e+02 
       6.590669257916e-01       1.864337340943e+02 
       7.009246080454e-01       1.627256627335e+02 
       7.528593308799e-01       1.388194021802e+02 
       8.213469537518e-01       1.141886808172e+02 
       9.196980813302e-01       8.835954456406e+01 
       1.075112183810e+00       6.172613224411e+01 
       1.322697471132e+00       3.804289761477e+01 
       1.662328205042e+00       2.209807569558e+01 
       2.092692408506e+00       1.266917378041e+01 
       2.634543445090e+00       7.203359807487e+00 
       3.316693691389e+00       4.065142401945e+00 
       4.175469971226e+00       2.278618076501e+00 
       5.256605252960e+00       1.269344426171e+00 
       6.617673932723e+00       7.031309458667e-01 
       8.331157880872e+00       3.874714878372e-01 
       1.048830636590e+01       2.125057885384e-01 
       1.320399541071e+01       1.160320487258e-01 
       1.662284535976e+01       6.309591718610e-02 
       2.092692243973e+01       3.417717250019e-02 
       2.634543445002e+01       1.844412180957e-02 
       3.316693691389e+01       9.917637818225e-03 
       4.175469971226e+01       5.313457768713e-03 
       5.256605252960e+01       2.835801185088e-03 
       6.617673932723e+01       1.507002763792e-03 
