# Matter power spectrum P(k) at redshift z=0
# for k=1.04775e-05 to 157.312 h/Mpc,
# number of wavenumbers equal to 257
#    1:k (h/Mpc)              2:P (Mpc/h)^3        
       1.047750691338e-05       5.020963906804e+01 
       1.131335172818e-05       5.407048937148e+01 
       1.221587619877e-05       5.822820724030e+01 
       1.319039970550e-05       6.270562047250e+01 
       1.424266598317e-05       6.752731476098e+01 
       1.537887697396e-05       7.271975715395e+01 
       1.660572938097e-05       7.831147101246e+01 
       1.793045413791e-05       8.433312302135e+01 
       1.936085902737e-05       9.081780130646e+01 
       2.090537469909e-05       9.780107449717e+01 
       2.257310435923e-05       1.053212938596e+02 
       2.437387742372e-05       1.134197268469e+02 
       2.631830745176e-05       1.221408285626e+02 
       2.841785470091e-05       1.315324590474e+02 
       3.068489367268e-05       1.416461671356e+02 
       3.313278604643e-05       1.525374478906e+02 
       3.577595943165e-05       1.642660517204e+02 
       3.862999240274e-05       1.768963429374e+02 
       4.171170631739e-05       1.904975997819e+02 
       4.503926445983e-05       2.051444243234e+02 
       4.863227909323e-05       2.209171412049e+02 
       5.251192705226e-05       2.379022266148e+02 
       5.670107455699e-05       2.561927841241e+02 
       6.122441198393e-05       2.758890479711e+02 
       6.610859938837e-05       2.970989213983e+02 
       7.138242363583e-05       3.199385559930e+02 
       7.707696806873e-05       3.445329727006e+02 
       8.322579570814e-05       3.710167324010e+02 
       8.986514707061e-05       3.995346444121e+02 
       9.703415376577e-05       4.302425389349e+02 
       1.047750691338e-04       4.633080773458e+02 
       1.131335172818e-04       4.989116271614e+02 
       1.221587619877e-04       5.372471938793e+02 
       1.319039970550e-04       5.785234116875e+02 
       1.424266598317e-04       6.229645933136e+02 
       1.537887697396e-04       6.708118487509e+02 
       1.660572938097e-04       7.223242657764e+02 
       1.793045413791e-04       7.777801571263e+02 
       1.936085902737e-04       8.374783638364e+02 
       2.090537469909e-04       9.017396276676e+02 
       2.257310435923e-04       9.709080297650e+02 
       2.437387742372e-04       1.045352453376e+03 
       2.631830745176e-04       1.125468127720e+03 
       2.841785470091e-04       1.211678185928e+03 
       3.068489367268e-04       1.304435256065e+03 
       3.313278604643e-04       1.404223062921e+03 
       3.577595943165e-04       1.511558029577e+03 
       3.862999240274e-04       1.626990852555e+03 
       4.171170631739e-04       1.751108045602e+03 
       4.503926445983e-04       1.884533404754e+03 
       4.863227909323e-04       2.027929406955e+03 
       5.251192705226e-04       2.181998483912e+03 
       5.670107455699e-04       2.347484146065e+03 
       6.122441198393e-04       2.525171925194e+03 
       6.610859938837e-04       2.715890054977e+03 
       7.138242363583e-04       2.920509779318e+03 
       7.707696806873e-04       3.139945208048e+03 
       8.322579570814e-04       3.375152477014e+03 
       8.986514707061e-04       3.627128020457e+03 
       9.703415376577e-04       3.896905669498e+03 
       1.047750691338e-03       4.185552452604e+03 
       1.131335172818e-03       4.494162775558e+03 
       1.221587619877e-03       4.823851150575e+03 
       1.319039970550e-03       5.175743278685e+03 
       1.424266598317e-03       5.551020298648e+03 
       1.537887697396e-03       5.950789185386e+03 
       1.660572938097e-03       6.376124149993e+03 
       1.793045413791e-03       6.828075236508e+03 
       1.936085902737e-03       7.307627050946e+03 
       2.090537469909e-03       7.815673958909e+03 
       2.257310435923e-03       8.352992922787e+03 
       2.437387742372e-03       8.920214306083e+03 
       2.631830745176e-03       9.517787166333e+03 
       2.841785470091e-03       1.014594130621e+04 
       3.068489367268e-03       1.080465136410e+04 
       3.313278604643e-03       1.149358239414e+04 
       3.577595943165e-03       1.221204586723e+04 
       3.862999240274e-03       1.295893666309e+04 
       4.171170631739e-03       1.373267338365e+04 
       4.503926445983e-03       1.453113499688e+04 
       4.863227909323e-03       1.535157112684e+04 
       5.251192705226e-03       1.619066141583e+04 
       5.670107455699e-03       1.704433879936e+04 
       6.122441198393e-03       1.790758131776e+04 
       6.610859938837e-03       1.877461999492e+04 
       7.138242363583e-03       1.963874673839e+04 
       7.707696806873e-03       2.049217382391e+04 
       8.322579570814e-03       2.132612059380e+04 
       8.986514707061e-03       2.213056586445e+04 
       9.703415376577e-03       2.289447194274e+04 
       1.047750691338e-02       2.360549508649e+04 
       1.131335172818e-02       2.425023931189e+04 
       1.221587619877e-02       2.481424710319e+04 
       1.319039970550e-02       2.528220442391e+04 
       1.424266598317e-02       2.563815222723e+04 
       1.537887697392e-02       2.586608219825e+04 
       1.660572938023e-02       2.595027035076e+04 
       1.793045412706e-02       2.587635578785e+04 
       1.936085890181e-02       2.563219049037e+04 
       2.090537352463e-02       2.520936009653e+04 
       2.257309535333e-02       2.460445233642e+04 
       2.437382002918e-02       2.382087324979e+04 
       2.631799944462e-02       2.287039888165e+04 
       2.841644545389e-02       2.177448892462e+04 
       3.067933355377e-02       2.056556156185e+04 
       3.311368470740e-02       1.928730404649e+04 
       3.571840443502e-02       1.799402171313e+04 
       3.847720348444e-02       1.674684258554e+04 
       4.135335538431e-02       1.560459431579e+04 
       4.429361667738e-02       1.461035545458e+04 
       4.724366439141e-02       1.378054592587e+04 
       5.016480835311e-02       1.310503220451e+04 
       5.303989620246e-02       1.255714456773e+04 
       5.586870669566e-02       1.210424285890e+04 
       5.866042680613e-02       1.171467820868e+04 
       6.142798932958e-02       1.136048945435e+04 
       6.418496440164e-02       1.101857518162e+04 
       6.694418833788e-02       1.067072747309e+04 
       6.971731106057e-02       1.030358924987e+04 
       7.251476155766e-02       9.909054076165e+03 
       7.534587671527e-02       9.483793112929e+03 
       7.821907666265e-02       9.029508991324e+03 
       8.114203772912e-02       8.552345661919e+03 
       8.412184535029e-02       8.061964423981e+03 
       8.716512279304e-02       7.570754731424e+03 
       9.027813695930e-02       7.092478390450e+03 
       9.346688431697e-02       6.640525106017e+03 
       9.673716028275e-02       6.226710749970e+03 
       1.000946150830e-01       5.859916728051e+03 
       1.035447986537e-01       5.545262730026e+03 
       1.070931966762e-01       5.283145871730e+03 
       1.107452594425e-01       5.069393220948e+03 
       1.145064249153e-01       4.895216580473e+03 
       1.183821370918e-01       4.747810400779e+03 
       1.223778605862e-01       4.611705768507e+03 
       1.264990921987e-01       4.470607481870e+03 
       1.307513701367e-01       4.310241736878e+03 
       1.351402814784e-01       4.121362955166e+03 
       1.396714684203e-01       3.902042939721e+03 
       1.443506338194e-01       3.658631252833e+03 
       1.491835465229e-01       3.404461209045e+03 
       1.541760469708e-01       3.156631947550e+03 
       1.593340535561e-01       2.931922537587e+03 
       1.646635702297e-01       2.742334840975e+03 
       1.701706958456e-01       2.592207281608e+03 
       1.758616357459e-01       2.477191967967e+03 
       1.817427160982e-01       2.385151256442e+03 
       1.878204015065e-01       2.300300554335e+03 
       1.941013164283e-01       2.205708069096e+03 
       2.005922709503e-01       2.090772778753e+03 
       2.073002914972e-01       1.956417783980e+03 
       2.142326570816e-01       1.814141735509e+03 
       2.213969417533e-01       1.679236228090e+03 
       2.288010639706e-01       1.563796684870e+03 
       2.364533437147e-01       1.472635642177e+03 
       2.443625682930e-01       1.401472013607e+03 
       2.525380679504e-01       1.338364785008e+03 
       2.609898026346e-01       1.270851763910e+03 
       2.697284615565e-01       1.193334946076e+03 
       2.787655775689e-01       1.109288484007e+03 
       2.881136588829e-01       1.028717212323e+03 
       2.977863412677e-01       9.604291901213e+02 
       3.077985646929e-01       9.049705433551e+02 
       3.181667794071e-01       8.560946197182e+02 
       3.289091877812e-01       8.061361890466e+02 
       3.400460299658e-01       7.523404224913e+02 
       3.515999236474e-01       6.988711916595e+02 
       3.635962711085e-01       6.510115617498e+02 
       3.760637506334e-01       6.100705059145e+02 
       3.890349143879e-01       5.720806948630e+02 
       4.025469216825e-01       5.337309954928e+02 
       4.166424456376e-01       4.955796156944e+02 
       4.313708035863e-01       4.604167054399e+02 
       4.467893782977e-01       4.287249220118e+02 
       4.629654199663e-01       3.987209382160e+02 
       4.799783501994e-01       3.691901991205e+02 
       4.979227319373e-01       3.411879681426e+02 
       5.169121270864e-01       3.154314139617e+02 
       5.370841404489e-01       2.907836548891e+02 
       5.586070464571e-01       2.670539306130e+02 
       5.816885094930e-01       2.447581611897e+02 
       6.065870144995e-01       2.235168109383e+02 
       6.336266468475e-01       2.031592729278e+02 
       6.632156059511e-01       1.838280362667e+02 
       6.958678639262e-01       1.653047321040e+02 
       7.322247985589e-01       1.476461022069e+02 
       7.730680195113e-01       1.307846405298e+02 
       8.193049553677e-01       1.147825425808e+02 
       8.718988016039e-01       9.971440676924e+01 
       9.317218031081e-01       8.573010106309e+01 
       9.993660908989e-01       7.300780216892e+01 
       1.075037110174e+00       6.168966557320e+01 
       1.158653485707e+00       5.183346746190e+01 
       1.250099157308e+00       4.339587971675e+01 
       1.349432401273e+00       3.624596470683e+01 
       1.456947457397e+00       3.022571401459e+01 
       1.573135111331e+00       2.517312812540e+01 
       1.698621895592e+00       2.094170018885e+01 
       1.834127512934e+00       1.740315213541e+01 
       1.980444934528e+00       1.444765210860e+01 
       2.138435191726e+00       1.198181413648e+01 
       2.309029199186e+00       9.927162745661e+00 
       2.493232377687e+00       8.216883667357e+00 
       2.692130395285e+00       6.794812694527e+00 
       2.906895534573e+00       5.613550209852e+00 
       3.138793597714e+00       4.633280374702e+00 
       3.389191366484e+00       3.820606959994e+00 
       3.659564657905e+00       3.147492446349e+00 
       3.951507022538e+00       2.590501683316e+00 
       4.266739136701e+00       2.130029880394e+00 
       4.607118943941e+00       1.749653160551e+00 
       4.974652605557e+00       1.435734400138e+00 
       5.371506324689e+00       1.176883420365e+00 
       5.800019113685e+00       9.636287607304e-01 
       6.262716579983e+00       7.880724505443e-01 
       6.762325811764e+00       6.436946306748e-01 
       7.301791451110e+00       5.250498365852e-01 
       7.884293049406e+00       4.276460955297e-01 
       8.513263807261e+00       3.477493391396e-01 
       9.192410809424e+00       2.822744275006e-01 
       9.925736873929e+00       2.286896096784e-01 
       1.071756414427e+01       1.848634008508e-01 
       1.157255956364e+01       1.490717580693e-01 
       1.249576238137e+01       1.198779232506e-01 
       1.349261385375e+01       9.609893207950e-02 
       1.456898931416e+01       7.676473327895e-02 
       1.573123280165e+01       6.107082440166e-02 
       1.698619445202e+01       4.836072161693e-02 
       1.834127087176e+01       3.809219659223e-02 
       1.980444873285e+01       2.981960201938e-02 
       2.138435184532e+01       2.317832511461e-02 
       2.309029198506e+01       1.786880882045e-02 
       2.493232377636e+01       1.364340106037e-02 
       2.692130395282e+01       1.030176051735e-02 
       2.906895534573e+01       7.676823082218e-03 
       3.138793597714e+01       5.632546820213e-03 
       3.389191366484e+01       4.057151228525e-03 
       3.659564657905e+01       2.858460663056e-03 
       3.951507022538e+01       1.960658559540e-03 
       4.266739136701e+01       1.301243956159e-03 
       4.607118943941e+01       8.286224875658e-04 
       4.974652605557e+01       5.003125580041e-04 
       5.371506324689e+01       2.813603337275e-04 
       5.800019113685e+01       1.431215796757e-04 
       6.262716579983e+01       6.238361211640e-05 
       6.762325811764e+01       2.062837189991e-05 
       7.301791451110e+01       3.437930684570e-06 
       7.884293049406e+01       4.207365254207e-08 
       8.513263807261e+01       2.837611419513e-06 
       9.192410809424e+01       6.964631051840e-06 
       9.925736873929e+01       9.807064727196e-06 
       1.071756414427e+02       1.046519385040e-05 
       1.157255956364e+02       9.180266907688e-06 
       1.249576238137e+02       6.778504865247e-06 
       1.349261385375e+02       4.185017865656e-06 
       1.456898931416e+02       2.083290977441e-06 
       1.573123280165e+02       7.649727595002e-07 
