# Matter power spectrum P(k) at redshift z=99
# for k=1.04775e-05 to 157.312 h/Mpc,
# number of wavenumbers equal to 257
#    1:k (h/Mpc)              2:P (Mpc/h)^3        
       1.047750691338e-05       7.261927097283e-03 
       1.131335172818e-05       7.820332152907e-03 
       1.221587619877e-05       8.421675384645e-03 
       1.319039970550e-05       9.069257740496e-03 
       1.424266598317e-05       9.766636453810e-03 
       1.537887697396e-05       1.051763973930e-02 
       1.660572938097e-05       1.132639251063e-02 
       1.793045413791e-05       1.219733201842e-02 
       1.936085902737e-05       1.313524187564e-02 
       2.090537469909e-05       1.414527085366e-02 
       2.257310435923e-05       1.523296544912e-02 
       2.437387742372e-05       1.640429655092e-02 
       2.631830745176e-05       1.766569603772e-02 
       2.841785470091e-05       1.902408711686e-02 
       3.068489367268e-05       2.048692968007e-02 
       3.313278604643e-05       2.206225468154e-02 
       3.577595943165e-05       2.375870884497e-02 
       3.862999240274e-05       2.558560670528e-02 
       4.171170631739e-05       2.755297673279e-02 
       4.503926445983e-05       2.967161934238e-02 
       4.863227909323e-05       3.195316456543e-02 
       5.251192705226e-05       3.441013467079e-02 
       5.670107455699e-05       3.705601742737e-02 
       6.122441198393e-05       3.990533413965e-02 
       6.610859938837e-05       4.297372243734e-02 
       7.138242363583e-05       4.627802056225e-02 
       7.707696806873e-05       4.983636161288e-02 
       8.322579570814e-05       5.366826788415e-02 
       8.986514707061e-05       5.779476321335e-02 
       9.703415376577e-05       6.223848223554e-02 
       1.047750691338e-04       6.702379826872e-02 
       1.131335172818e-04       7.217695033021e-02 
       1.221587619877e-04       7.772619032495e-02 
       1.319039970550e-04       8.370193382426e-02 
       1.424266598317e-04       9.013692509133e-02 
       1.537887697396e-04       9.706641133065e-02 
       1.660572938097e-04       1.045283343399e-01 
       1.793045413791e-04       1.125635329495e-01 
       1.936085902737e-04       1.212159591863e-01 
       2.090537469909e-04       1.305329107793e-01 
       2.257310435923e-04       1.405652819747e-01 
       2.437387742372e-04       1.513678275487e-01 
       2.631830745176e-04       1.629994475579e-01 
       2.841785470091e-04       1.755234890957e-01 
       3.068489367268e-04       1.890080645813e-01 
       3.313278604643e-04       2.035263977983e-01 
       3.577595943165e-04       2.191571778636e-01 
       3.862999240274e-04       2.359849423894e-01 
       4.171170631739e-04       2.541004713680e-01 
       4.503926445983e-04       2.736012061884e-01 
       4.863227909323e-04       2.945916775417e-01 
       5.251192705226e-04       3.171839508688e-01 
       5.670107455699e-04       3.414980769985e-01 
       6.122441198393e-04       3.676625417231e-01 
       6.610859938837e-04       3.958147273848e-01 
       7.138242363583e-04       4.261013333100e-01 
       7.707696806873e-04       4.586787881936e-01 
       8.322579570814e-04       4.937136113955e-01 
       8.986514707061e-04       5.313826963252e-01 
       9.703415376577e-04       5.718735178011e-01 
       1.047750691338e-03       6.153841927476e-01 
       1.131335172818e-03       6.621233624348e-01 
       1.221587619877e-03       7.123098744853e-01 
       1.319039970550e-03       7.661721264926e-01 
       1.424266598317e-03       8.239547182355e-01 
       1.537887697396e-03       8.859012283707e-01 
       1.660572938097e-03       9.522589496361e-01 
       1.793045413791e-03       1.023280284754e+00 
       1.936085902737e-03       1.099216542080e+00 
       2.090537469909e-03       1.180313284920e+00 
       2.257310435923e-03       1.266804486565e+00 
       2.437387742372e-03       1.358905328043e+00 
       2.631830745176e-03       1.456803285288e+00 
       2.841785470091e-03       1.560647662044e+00 
       3.068489367268e-03       1.670537009135e+00 
       3.313278604643e-03       1.786505037585e+00 
       3.577595943165e-03       1.908504407238e+00 
       3.862999240274e-03       2.036389464755e+00 
       4.171170631739e-03       2.169898247286e+00 
       4.503926445983e-03       2.308634484390e+00 
       4.863227909323e-03       2.452050664396e+00 
       5.251192705226e-03       2.599434655342e+00 
       5.670107455699e-03       2.749900631868e+00 
       6.122441198393e-03       2.902390139926e+00 
       6.610859938837e-03       3.055671362107e+00 
       7.138242363583e-03       3.208360407622e+00 
       7.707696806873e-03       3.358925969321e+00 
       8.322579570814e-03       3.505727954210e+00 
       8.986514707061e-03       3.647012741658e+00 
       9.703415376577e-03       3.780926091376e+00 
       1.047750691338e-02       3.905492672000e+00 
       1.131335172818e-02       4.018589332606e+00 
       1.221587619877e-02       4.117902521880e+00 
       1.319039970550e-02       4.200917200750e+00 
       1.424266598317e-02       4.264943097440e+00 
       1.537887697392e-02       4.307218799117e+00 
       1.660572938023e-02       4.325061298161e+00 
       1.793045412706e-02       4.316058947404e+00 
       1.936085890181e-02       4.278227017610e+00 
       2.090537352463e-02       4.210202204949e+00 
       2.257309535333e-02       4.111415796053e+00 
       2.437382002918e-02       3.982417215015e+00 
       2.631799944462e-02       3.825164022923e+00 
       2.841644545389e-02       3.643276308205e+00 
       3.067933355377e-02       3.442191590254e+00 
       3.311368470740e-02       3.229233216191e+00 
       3.571840443502e-02       3.013505908418e+00 
       3.847720348444e-02       2.805272439344e+00 
       4.135335538431e-02       2.614396054958e+00 
       4.429361667738e-02       2.448115399789e+00 
       4.724366439141e-02       2.309221547573e+00 
       5.016480835311e-02       2.196093774323e+00 
       5.303989620246e-02       2.104346145756e+00 
       5.586870669566e-02       2.028436634601e+00 
       5.866042680613e-02       1.963127171032e+00 
       6.142798932958e-02       1.903749472846e+00 
       6.418496440164e-02       1.846446941820e+00 
       6.694418833788e-02       1.788163258790e+00 
       6.971731106057e-02       1.726679668812e+00 
       7.251476155766e-02       1.660617286508e+00 
       7.534587671527e-02       1.589431313799e+00 
       7.821907666265e-02       1.513396477578e+00 
       8.114203772912e-02       1.433527239260e+00 
       8.412184535029e-02       1.351448413039e+00 
       8.716512279304e-02       1.269228998002e+00 
       9.027813695930e-02       1.189146998227e+00 
       9.346688431697e-02       1.113453368453e+00 
       9.673716028275e-02       1.044125381561e+00 
       1.000946150830e-01       9.826553431391e-01 
       1.035447986537e-01       9.298833956397e-01 
       1.070931966762e-01       8.859042187870e-01 
       1.107452594425e-01       8.500145410731e-01 
       1.145064249153e-01       8.207447182572e-01 
       1.183821370918e-01       7.959633554658e-01 
       1.223778605862e-01       7.730824429745e-01 
       1.264990921987e-01       7.493865554451e-01 
       1.307513701367e-01       7.224898515872e-01 
       1.351402814784e-01       6.908394874310e-01 
       1.396714684203e-01       6.541104899812e-01 
       1.443506338194e-01       6.133549356294e-01 
       1.491835465229e-01       5.707954164904e-01 
       1.541760469708e-01       5.292912367029e-01 
       1.593340535561e-01       4.916366521318e-01 
       1.646635702297e-01       4.598445865584e-01 
       1.701706958456e-01       4.346509053062e-01 
       1.758616357459e-01       4.153288689911e-01 
       1.817427160982e-01       3.998558152539e-01 
       1.878204015065e-01       3.855993153224e-01 
       1.941013164283e-01       3.697242018536e-01 
       2.005922709503e-01       3.504599032258e-01 
       2.073002914972e-01       3.279558794289e-01 
       2.142326570816e-01       3.041257834902e-01 
       2.213969417533e-01       2.815237662002e-01 
       2.288010639706e-01       2.621678282792e-01 
       2.364533437147e-01       2.468714562133e-01 
       2.443625682930e-01       2.349208880084e-01 
       2.525380679504e-01       2.243241509858e-01 
       2.609898026346e-01       2.129986450231e-01 
       2.697284615565e-01       2.000058173997e-01 
       2.787655775689e-01       1.859236420311e-01 
       2.881136588829e-01       1.724206776736e-01 
       2.977863412677e-01       1.609683474374e-01 
       3.077985646929e-01       1.516626682797e-01 
       3.181667794071e-01       1.434598665833e-01 
       3.289091877812e-01       1.350811827423e-01 
       3.400460299658e-01       1.260635312020e-01 
       3.515999236474e-01       1.171009286236e-01 
       3.635962711085e-01       1.090755777744e-01 
       3.760637506334e-01       1.022075027878e-01 
       3.890349143879e-01       9.583501472352e-02 
       4.025469216825e-01       8.940465820013e-02 
       4.166424456376e-01       8.300862127698e-02 
       4.313708035863e-01       7.711208829509e-02 
       4.467893782977e-01       7.179678909594e-02 
       4.629654199663e-01       6.676501221805e-02 
       4.799783501994e-01       6.181338268500e-02 
       4.979227319373e-01       5.711806107410e-02 
       5.169121270864e-01       5.279863335085e-02 
       5.370841404489e-01       4.866553507234e-02 
       5.586070464571e-01       4.468672167022e-02 
       5.816885094930e-01       4.094796115490e-02 
       6.065870144995e-01       3.738608855425e-02 
       6.336266468475e-01       3.397287346521e-02 
       6.632156059511e-01       3.073155608567e-02 
       6.958678639262e-01       2.762578071687e-02 
       7.322247985589e-01       2.466515794045e-02 
       7.730680195113e-01       2.183839813808e-02 
       8.193049553677e-01       1.915585280998e-02 
       8.718988016039e-01       1.663000380484e-02 
       9.317218031081e-01       1.428618924981e-02 
       9.993660908989e-01       1.215407629751e-02 
       1.075037110174e+00       1.025761632574e-02 
       1.158653485707e+00       8.606508646829e-03 
       1.250099157308e+00       7.193298949061e-03 
       1.349432401273e+00       5.996202223870e-03 
       1.456947457397e+00       4.988615094019e-03 
       1.573135111331e+00       4.143425831151e-03 
       1.698621895592e+00       3.435968942944e-03 
       1.834127512934e+00       2.844791633969e-03 
       1.980444934528e+00       2.351413140650e-03 
       2.138435191726e+00       1.940256148621e-03 
       2.309029199186e+00       1.598057160824e-03 
       2.493232377687e+00       1.313653617548e-03 
       2.692130395285e+00       1.077597043200e-03 
       2.906895534573e+00       8.819622459746e-04 
       3.138793597714e+00       7.200504807334e-04 
       3.389191366484e+00       5.862564461161e-04 
       3.659564657905e+00       4.758812974170e-04 
       3.951507022538e+00       3.849878845835e-04 
       4.266739136701e+00       3.102839210667e-04 
       4.607118943941e+00       2.490084391184e-04 
       4.974652605557e+00       1.988798708894e-04 
       5.371506324689e+00       1.579753504110e-04 
       5.800019113685e+00       1.247019320429e-04 
       6.262716579983e+00       9.773586940344e-05 
       6.762325811764e+00       7.597435618417e-05 
       7.301791451110e+00       5.849865747169e-05 
       7.884293049406e+00       4.454852383763e-05 
       8.513263807261e+00       3.349102642697e-05 
       9.192410809424e+00       2.480041513623e-05 
       9.925736873929e+00       1.803917838057e-05 
       1.071756414427e+01       1.284363727436e-05 
       1.157255956364e+01       8.911419371310e-06 
       1.249576238137e+01       5.990087567367e-06 
       1.349261385375e+01       3.869539312321e-06 
       1.456898931416e+01       2.375094218244e-06 
       1.573123280165e+01       1.361326732829e-06 
       1.698619445202e+01       7.081197013995e-07 
       1.834127087176e+01       3.170434921374e-07 
       1.980444873285e+01       1.083362112748e-07 
       2.138435184532e+01       1.890120905239e-08 
       2.309029198506e+01       2.084214328863e-10 
       2.493232377636e+01       1.669741387291e-08 
       2.692130395282e+01       4.403379198894e-08 
       2.906895534573e+01       6.742091699781e-08 
       3.138793597714e+01       7.976614906887e-08 
       3.389191366484e+01       7.972577226621e-08 
       3.659564657905e+01       6.962949257952e-08 
       3.951507022538e+01       5.375223406008e-08 
       4.266739136701e+01       3.652208457364e-08 
       4.607118943941e+01       2.143861724771e-08 
       4.974652605557e+01       1.043187817775e-08 
       5.371506324689e+01       3.841255194508e-09 
       5.800019113685e+01       8.253591459842e-10 
       6.262716579983e+01       1.655977614174e-11 
       6.762325811764e+01       1.336304304888e-10 
       7.301791451110e+01       3.562184936391e-10 
       7.884293049406e+01       3.816036428435e-10 
       8.513263807261e+01       2.510383328857e-10 
       9.192410809424e+01       1.043426439238e-10 
       9.925736873929e+01       2.226591411424e-11 
       1.071756414427e+02       5.233895490321e-13 
       1.157255956364e+02       1.646963769984e-12 
       1.249576238137e+02       2.545651579293e-12 
       1.349261385375e+02       9.301318419545e-13 
       1.456898931416e+02       3.280056899530e-14 
       1.573123280165e+02       6.846270046856e-14 
