# Matter power spectrum P(k) at redshift z=0
# for k=1.04775e-05 to 157.312 h/Mpc,
# number of wavenumbers equal to 257
#    1:k (h/Mpc)              2:P (Mpc/h)^3        
       1.047750691338e-05       5.020963906804e+01 
       1.131335172818e-05       5.407048937148e+01 
       1.221587619877e-05       5.822820724029e+01 
       1.319039970550e-05       6.270562047247e+01 
       1.424266598317e-05       6.752731476098e+01 
       1.537887697396e-05       7.271975715395e+01 
       1.660572938097e-05       7.831147101246e+01 
       1.793045413791e-05       8.433312302135e+01 
       1.936085902737e-05       9.081780130646e+01 
       2.090537469909e-05       9.780107449209e+01 
       2.257310435923e-05       1.053212938596e+02 
       2.437387742372e-05       1.134197268469e+02 
       2.631830745176e-05       1.221408285624e+02 
       2.841785470091e-05       1.315324590474e+02 
       3.068489367268e-05       1.416461671358e+02 
       3.313278604643e-05       1.525374478894e+02 
       3.577595943165e-05       1.642660517239e+02 
       3.862999240274e-05       1.768963429378e+02 
       4.171170631739e-05       1.904975997820e+02 
       4.503926445983e-05       2.051444243234e+02 
       4.863227909323e-05       2.209171412049e+02 
       5.251192705226e-05       2.379022266146e+02 
       5.670107455699e-05       2.561927841239e+02 
       6.122441198393e-05       2.758890479552e+02 
       6.610859938837e-05       2.970989213980e+02 
       7.138242363583e-05       3.199385559930e+02 
       7.707696806873e-05       3.445329727006e+02 
       8.322579570814e-05       3.710167324011e+02 
       8.986514707061e-05       3.995346444121e+02 
       9.703415376577e-05       4.302425389349e+02 
       1.047750691338e-04       4.633080773457e+02 
       1.131335172818e-04       4.989116271552e+02 
       1.221587619877e-04       5.372471938794e+02 
       1.319039970550e-04       5.785234116884e+02 
       1.424266598317e-04       6.229645933130e+02 
       1.537887697396e-04       6.708118487511e+02 
       1.660572938097e-04       7.223242657765e+02 
       1.793045413791e-04       7.777801571271e+02 
       1.936085902737e-04       8.374783638365e+02 
       2.090537469909e-04       9.017396276765e+02 
       2.257310435923e-04       9.709080297651e+02 
       2.437387742372e-04       1.045352453376e+03 
       2.631830745176e-04       1.125468127721e+03 
       2.841785470091e-04       1.211678185928e+03 
       3.068489367268e-04       1.304435256065e+03 
       3.313278604643e-04       1.404223062921e+03 
       3.577595943165e-04       1.511558029577e+03 
       3.862999240274e-04       1.626990852555e+03 
       4.171170631739e-04       1.751108045603e+03 
       4.503926445983e-04       1.884533404755e+03 
       4.863227909323e-04       2.027929406956e+03 
       5.251192705226e-04       2.181998483913e+03 
       5.670107455699e-04       2.347484146066e+03 
       6.122441198393e-04       2.525171925196e+03 
       6.610859938837e-04       2.715890054979e+03 
       7.138242363583e-04       2.920509779320e+03 
       7.707696806873e-04       3.139945208051e+03 
       8.322579570814e-04       3.375152477019e+03 
       8.986514707061e-04       3.627128020462e+03 
       9.703415376577e-04       3.896905669504e+03 
       1.047750691338e-03       4.185552452613e+03 
       1.131335172818e-03       4.494162775570e+03 
       1.221587619877e-03       4.823851150591e+03 
       1.319039970550e-03       5.175743278706e+03 
       1.424266598317e-03       5.551020298675e+03 
       1.537887697396e-03       5.950789185424e+03 
       1.660572938097e-03       6.376124150044e+03 
       1.793045413791e-03       6.828075236579e+03 
       1.936085902737e-03       7.307627051043e+03 
       2.090537469909e-03       7.815673959043e+03 
       2.257310435923e-03       8.352992922970e+03 
       2.437387742372e-03       8.920214306336e+03 
       2.631830745176e-03       9.517787166677e+03 
       2.841785470091e-03       1.014594130668e+04 
       3.068489367268e-03       1.080465136474e+04 
       3.313278604643e-03       1.149358239502e+04 
       3.577595943165e-03       1.221204586844e+04 
       3.862999240274e-03       1.295893666473e+04 
       4.171170631739e-03       1.373267338589e+04 
       4.503926445983e-03       1.453113499994e+04 
       4.863227909323e-03       1.535157115254e+04 
       5.251192705226e-03       1.619066155255e+04 
       5.670107455699e-03       1.704433881295e+04 
       6.122441198393e-03       1.790758125040e+04 
       6.610859938837e-03       1.877461997041e+04 
       7.138242363583e-03       1.963874650914e+04 
       7.707696806873e-03       2.049217385782e+04 
       8.322579570814e-03       2.132608015585e+04 
       8.986514707061e-03       2.213056719712e+04 
       9.703415376577e-03       2.289447300025e+04 
       1.047750691338e-02       2.360549528874e+04 
       1.131335172818e-02       2.425024128026e+04 
       1.221587619877e-02       2.481424708685e+04 
       1.319039970550e-02       2.528219969133e+04 
       1.424266598317e-02       2.563815132112e+04 
       1.537887697392e-02       2.586607618554e+04 
       1.660572938023e-02       2.595027129180e+04 
       1.793045412706e-02       2.587635584107e+04 
       1.936085890181e-02       2.563219806473e+04 
       2.090537352463e-02       2.520936165760e+04 
       2.257309535333e-02       2.460445462932e+04 
       2.437382002918e-02       2.382088357075e+04 
       2.631799944462e-02       2.287044908671e+04 
       2.841644545389e-02       2.177449878807e+04 
       3.067933355377e-02       2.056556873040e+04 
       3.311368470740e-02       1.928731587470e+04 
       3.571840443502e-02       1.799402154170e+04 
       3.847720348444e-02       1.674684818523e+04 
       4.135335538431e-02       1.560459834759e+04 
       4.429361667738e-02       1.461037941757e+04 
       4.724366439141e-02       1.378056014044e+04 
       5.016480835311e-02       1.310505617558e+04 
       5.303989620246e-02       1.255718218078e+04 
       5.586870669566e-02       1.210424475000e+04 
       5.866042680613e-02       1.171465505074e+04 
       6.142798932958e-02       1.136047266377e+04 
       6.418496440164e-02       1.101855346621e+04 
       6.694418833788e-02       1.067067556889e+04 
       6.971731106057e-02       1.030357917674e+04 
       7.251476155766e-02       9.909011795888e+03 
       7.534587671527e-02       9.483730785937e+03 
       7.821907666265e-02       9.029497381741e+03 
       8.114203772912e-02       8.552310954163e+03 
       8.412184535029e-02       8.061884906615e+03 
       8.716512279304e-02       7.570758458524e+03 
       9.027813695930e-02       7.092486787997e+03 
       9.346688431697e-02       6.640519834721e+03 
       9.673716028275e-02       6.226706152422e+03 
       1.000946150830e-01       5.859931398163e+03 
       1.035447986537e-01       5.545268240613e+03 
       1.070931966762e-01       5.283141156370e+03 
       1.107452594425e-01       5.069427424514e+03 
       1.145064249153e-01       4.895253552475e+03 
       1.183821370918e-01       4.747843354188e+03 
       1.223778605862e-01       4.611723119898e+03 
       1.264990921987e-01       4.470608432850e+03 
       1.307513701367e-01       4.310252935929e+03 
       1.351402814784e-01       4.121373147364e+03 
       1.396714684203e-01       3.902061128883e+03 
       1.443506338194e-01       3.658648786890e+03 
       1.491835465229e-01       3.404489431913e+03 
       1.541760469708e-01       3.156661844600e+03 
       1.593340535561e-01       2.931947352758e+03 
       1.646635702297e-01       2.742362402605e+03 
       1.701706958456e-01       2.592242963917e+03 
       1.758616357459e-01       2.477227762459e+03 
       1.817427160982e-01       2.385169038181e+03 
       1.878204015065e-01       2.300352991836e+03 
       1.941013164283e-01       2.205744272691e+03 
       2.005922709503e-01       2.090804482573e+03 
       2.073002914972e-01       1.956452090239e+03 
       2.142326570816e-01       1.814179617300e+03 
       2.213969417533e-01       1.679270976091e+03 
       2.288010639706e-01       1.563830443148e+03 
       2.364533437147e-01       1.472670677828e+03 
       2.443625682930e-01       1.401508079750e+03 
       2.525380679504e-01       1.338400865278e+03 
       2.609898026346e-01       1.270887216220e+03 
       2.697284615565e-01       1.193372773850e+03 
       2.787655775689e-01       1.109326764663e+03 
       2.881136588829e-01       1.028756109518e+03 
       2.977863412677e-01       9.604676837118e+02 
       3.077985646929e-01       9.050097785850e+02 
       3.181667794071e-01       8.561322284058e+02 
       3.289091877812e-01       8.061749177990e+02 
       3.400460299658e-01       7.523785455956e+02 
       3.515999236474e-01       6.989099251095e+02 
       3.635962711085e-01       6.510488376234e+02 
       3.760637506334e-01       6.101087324891e+02 
       3.890349143879e-01       5.721199059892e+02 
       4.025469216825e-01       5.337702946204e+02 
       4.166424456376e-01       4.956205300690e+02 
       4.313708035863e-01       4.604558425322e+02 
       4.467893782977e-01       4.287644459081e+02 
       4.629654199663e-01       3.987611685785e+02 
       4.799783501994e-01       3.692297336023e+02 
       4.979227319373e-01       3.412281244567e+02 
       5.169121270864e-01       3.154722607703e+02 
       5.370841404489e-01       2.908246344385e+02 
       5.586070464571e-01       2.670946365699e+02 
       5.816885094930e-01       2.447990494761e+02 
       6.065870144995e-01       2.235572920626e+02 
       6.336266468475e-01       2.031999266413e+02 
       6.632156059511e-01       1.838683495475e+02 
       6.958678639262e-01       1.653448275593e+02 
       7.322247985589e-01       1.476863338875e+02 
       7.730680195113e-01       1.308248296668e+02 
       8.193049553677e-01       1.148224077425e+02 
       8.718988016039e-01       9.975406835224e+01 
       9.317218031081e-01       8.576951087967e+01 
       9.993660908989e-01       7.304693834304e+01 
       1.075037110174e+00       6.172843308508e+01 
       1.158653485707e+00       5.187178449987e+01 
       1.250099157308e+00       4.343343699843e+01 
       1.349432401273e+00       3.628295421191e+01 
       1.456947457397e+00       3.026205336154e+01 
       1.573135111331e+00       2.520876184882e+01 
       1.698621895592e+00       2.097657622268e+01 
       1.834127512934e+00       1.743727605431e+01 
       1.980444934528e+00       1.448080535079e+01 
       2.138435191726e+00       1.201439790845e+01 
       2.309029199186e+00       9.958929016519e+00 
       2.493232377687e+00       8.247844393171e+00 
       2.692130395285e+00       6.824897032325e+00 
       2.906895534573e+00       5.642756519768e+00 
       3.138793597714e+00       4.661642188304e+00 
       3.389191366484e+00       3.848067055660e+00 
       3.659564657905e+00       3.174107357165e+00 
       3.951507022538e+00       2.616231977227e+00 
       4.266739136701e+00       2.154905750423e+00 
       4.607118943941e+00       1.773653569974e+00 
       4.974652605557e+00       1.458869060609e+00 
       5.371506324689e+00       1.199162453199e+00 
       5.800019113685e+00       9.850471463975e-01 
       6.262716579983e+00       8.086512369843e-01 
       6.762325811764e+00       6.634330473147e-01 
       7.301791451110e+00       5.439620592865e-01 
       7.884293049406e+00       4.457402833711e-01 
       8.513263807261e+00       3.650405729657e-01 
       9.192410809424e+00       2.987777769353e-01 
       9.925736873929e+00       2.444050978697e-01 
       1.071756414427e+01       1.998129036389e-01 
       1.157255956364e+01       1.632638897109e-01 
       1.249576238137e+01       1.333271298917e-01 
       1.349261385375e+01       1.088166134554e-01 
       1.456898931416e+01       8.876278983039e-02 
       1.573123280165e+01       7.236257144634e-02 
       1.698619445202e+01       5.895870719924e-02 
       1.834127087176e+01       4.800960499716e-02 
       1.980444873285e+01       3.906918957764e-02 
       2.138435184532e+01       3.177391336731e-02 
       2.309029198506e+01       2.582445229580e-02 
       2.493232377636e+01       2.097425832864e-02 
       2.692130395282e+01       1.702296769115e-02 
       2.906895534573e+01       1.380536012725e-02 
       3.138793597714e+01       1.118695178204e-02 
       3.389191366484e+01       9.057170467890e-03 
       3.659564657905e+01       7.326014953133e-03 
       3.951507022538e+01       5.919766385309e-03 
       4.266739136701e+01       4.778082052987e-03 
       4.607118943941e+01       3.851733709922e-03 
       4.974652605557e+01       3.100871742670e-03 
       5.371506324689e+01       2.492598018953e-03 
       5.800019113685e+01       2.000313905722e-03 
       6.262716579983e+01       1.602216702474e-03 
       6.762325811764e+01       1.280673182407e-03 
       7.301791451110e+01       1.021260906234e-03 
       7.884293049406e+01       8.121909491294e-04 
       8.513263807261e+01       6.440184956316e-04 
       9.192410809424e+01       5.089010078458e-04 
       9.925736873929e+01       4.005820800803e-04 
       1.071756414427e+02       3.139235498582e-04 
       1.157255956364e+02       2.447898775351e-04 
       1.249576238137e+02       1.897838841749e-04 
       1.349261385375e+02       1.461770583600e-04 
       1.456898931416e+02       1.117489236866e-04 
       1.573123280165e+02       8.469619250666e-05 
