# Matter power spectrum P(k) at redshift z=0
# for k=1.04775e-05 to 157.312 h/Mpc,
# number of wavenumbers equal to 257
#    1:k (h/Mpc)              2:P (Mpc/h)^3        
       1.047750691338e-05       5.020963906804e+01 
       1.131335172818e-05       5.407048937148e+01 
       1.221587619877e-05       5.822820724029e+01 
       1.319039970550e-05       6.270562047251e+01 
       1.424266598317e-05       6.752731476098e+01 
       1.537887697396e-05       7.271975715395e+01 
       1.660572938097e-05       7.831147101246e+01 
       1.793045413791e-05       8.433312302135e+01 
       1.936085902737e-05       9.081780130646e+01 
       2.090537469909e-05       9.780107449691e+01 
       2.257310435923e-05       1.053212938596e+02 
       2.437387742372e-05       1.134197268469e+02 
       2.631830745176e-05       1.221408285626e+02 
       2.841785470091e-05       1.315324590474e+02 
       3.068489367268e-05       1.416461671355e+02 
       3.313278604643e-05       1.525374478909e+02 
       3.577595943165e-05       1.642660517195e+02 
       3.862999240274e-05       1.768963429373e+02 
       4.171170631739e-05       1.904975997819e+02 
       4.503926445983e-05       2.051444243234e+02 
       4.863227909323e-05       2.209171412049e+02 
       5.251192705226e-05       2.379022266148e+02 
       5.670107455699e-05       2.561927841242e+02 
       6.122441198393e-05       2.758890479747e+02 
       6.610859938837e-05       2.970989213984e+02 
       7.138242363583e-05       3.199385559930e+02 
       7.707696806873e-05       3.445329727006e+02 
       8.322579570814e-05       3.710167324010e+02 
       8.986514707061e-05       3.995346444122e+02 
       9.703415376577e-05       4.302425389349e+02 
       1.047750691338e-04       4.633080773458e+02 
       1.131335172818e-04       4.989116271629e+02 
       1.221587619877e-04       5.372471938794e+02 
       1.319039970550e-04       5.785234116877e+02 
       1.424266598317e-04       6.229645933134e+02 
       1.537887697396e-04       6.708118487509e+02 
       1.660572938097e-04       7.223242657763e+02 
       1.793045413791e-04       7.777801571263e+02 
       1.936085902737e-04       8.374783638365e+02 
       2.090537469909e-04       9.017396276701e+02 
       2.257310435923e-04       9.709080297651e+02 
       2.437387742372e-04       1.045352453376e+03 
       2.631830745176e-04       1.125468127721e+03 
       2.841785470091e-04       1.211678185928e+03 
       3.068489367268e-04       1.304435256065e+03 
       3.313278604643e-04       1.404223062921e+03 
       3.577595943165e-04       1.511558029577e+03 
       3.862999240274e-04       1.626990852555e+03 
       4.171170631739e-04       1.751108045602e+03 
       4.503926445983e-04       1.884533404755e+03 
       4.863227909323e-04       2.027929406956e+03 
       5.251192705226e-04       2.181998483913e+03 
       5.670107455699e-04       2.347484146066e+03 
       6.122441198393e-04       2.525171925196e+03 
       6.610859938837e-04       2.715890054978e+03 
       7.138242363583e-04       2.920509779320e+03 
       7.707696806873e-04       3.139945208051e+03 
       8.322579570814e-04       3.375152477018e+03 
       8.986514707061e-04       3.627128020461e+03 
       9.703415376577e-04       3.896905669503e+03 
       1.047750691338e-03       4.185552452610e+03 
       1.131335172818e-03       4.494162775566e+03 
       1.221587619877e-03       4.823851150585e+03 
       1.319039970550e-03       5.175743278697e+03 
       1.424266598317e-03       5.551020298663e+03 
       1.537887697396e-03       5.950789185406e+03 
       1.660572938097e-03       6.376124150017e+03 
       1.793045413791e-03       6.828075236540e+03 
       1.936085902737e-03       7.307627050986e+03 
       2.090537469909e-03       7.815673958960e+03 
       2.257310435923e-03       8.352992922851e+03 
       2.437387742372e-03       8.920214306164e+03 
       2.631830745176e-03       9.517787166436e+03 
       2.841785470091e-03       1.014594130634e+04 
       3.068489367268e-03       1.080465136426e+04 
       3.313278604643e-03       1.149358239434e+04 
       3.577595943165e-03       1.221204586749e+04 
       3.862999240274e-03       1.295893666341e+04 
       4.171170631739e-03       1.373267338405e+04 
       4.503926445983e-03       1.453113499739e+04 
       4.863227909323e-03       1.535157114905e+04 
       5.251192705226e-03       1.619066154791e+04 
       5.670107455699e-03       1.704433880633e+04 
       6.122441198393e-03       1.790758124125e+04 
       6.610859938837e-03       1.877461995806e+04 
       7.138242363583e-03       1.963874649217e+04 
       7.707696806873e-03       2.049217383529e+04 
       8.322579570814e-03       2.132608012520e+04 
       8.986514707061e-03       2.213056715684e+04 
       9.703415376577e-03       2.289447294579e+04 
       1.047750691338e-02       2.360549521726e+04 
       1.131335172818e-02       2.425024118699e+04 
       1.221587619877e-02       2.481424696127e+04 
       1.319039970550e-02       2.528219953807e+04 
       1.424266598317e-02       2.563815111127e+04 
       1.537887697392e-02       2.586607589286e+04 
       1.660572938023e-02       2.595027050136e+04 
       1.793045412706e-02       2.587635521381e+04 
       1.936085890181e-02       2.563219651711e+04 
       2.090537352463e-02       2.520936080281e+04 
       2.257309535333e-02       2.460445367069e+04 
       2.437382002918e-02       2.382088480172e+04 
       2.631799944462e-02       2.287044759604e+04 
       2.841644545389e-02       2.177449276314e+04 
       3.067933355377e-02       2.056556653500e+04 
       3.311368470740e-02       1.928731347200e+04 
       3.571840443502e-02       1.799401836884e+04 
       3.847720348444e-02       1.674684442534e+04 
       4.135335538431e-02       1.560459387834e+04 
       4.429361667738e-02       1.461037437901e+04 
       4.724366439141e-02       1.378055440323e+04 
       5.016480835311e-02       1.310504985610e+04 
       5.303989620246e-02       1.255717521936e+04 
       5.586870669566e-02       1.210423727650e+04 
       5.866042680613e-02       1.171464708179e+04 
       6.142798932958e-02       1.136046421810e+04 
       6.418496440164e-02       1.101854432533e+04 
       6.694418833788e-02       1.067066602035e+04 
       6.971731106057e-02       1.030357254907e+04 
       7.251476155766e-02       9.909001578791e+03 
       7.534587671527e-02       9.483720092293e+03 
       7.821907666265e-02       9.029486317372e+03 
       8.114203772912e-02       8.552299934136e+03 
       8.412184535029e-02       8.061873735469e+03 
       8.716512279304e-02       7.570747198270e+03 
       9.027813695930e-02       7.092475025335e+03 
       9.346688431697e-02       6.640508071051e+03 
       9.673716028275e-02       6.226694147533e+03 
       1.000946150830e-01       5.859919213223e+03 
       1.035447986537e-01       5.545248678628e+03 
       1.070931966762e-01       5.283128359427e+03 
       1.107452594425e-01       5.069414072379e+03 
       1.145064249153e-01       4.895240177743e+03 
       1.183821370918e-01       4.747828654688e+03 
       1.223778605862e-01       4.611688701628e+03 
       1.264990921987e-01       4.470606834301e+03 
       1.307513701367e-01       4.310237853363e+03 
       1.351402814784e-01       4.121357932618e+03 
       1.396714684203e-01       3.902045820190e+03 
       1.443506338194e-01       3.658633467193e+03 
       1.491835465229e-01       3.404472579891e+03 
       1.541760469708e-01       3.156646651035e+03 
       1.593340535561e-01       2.931932183385e+03 
       1.646635702297e-01       2.742347110031e+03 
       1.701706958456e-01       2.592226276586e+03 
       1.758616357459e-01       2.477212196310e+03 
       1.817427160982e-01       2.385153200242e+03 
       1.878204015065e-01       2.300336944278e+03 
       1.941013164283e-01       2.205728000478e+03 
       2.005922709503e-01       2.090793061844e+03 
       2.073002914972e-01       1.956435515517e+03 
       2.142326570816e-01       1.814168343758e+03 
       2.213969417533e-01       1.679256410315e+03 
       2.288010639706e-01       1.563814586608e+03 
       2.364533437147e-01       1.472654743199e+03 
       2.443625682930e-01       1.401492176760e+03 
       2.525380679504e-01       1.338384880432e+03 
       2.609898026346e-01       1.270873811225e+03 
       2.697284615565e-01       1.193354740962e+03 
       2.787655775689e-01       1.109310785839e+03 
       2.881136588829e-01       1.028740510547e+03 
       2.977863412677e-01       9.604522642278e+02 
       3.077985646929e-01       9.049956340264e+02 
       3.181667794071e-01       8.561169916971e+02 
       3.289091877812e-01       8.061596785416e+02 
       3.400460299658e-01       7.523627853181e+02 
       3.515999236474e-01       6.988945211578e+02 
       3.635962711085e-01       6.510347136632e+02 
       3.760637506334e-01       6.100943197742e+02 
       3.890349143879e-01       5.721053300507e+02 
       4.025469216825e-01       5.337557732575e+02 
       4.166424456376e-01       4.956055563202e+02 
       4.313708035863e-01       4.604418433204e+02 
       4.467893782977e-01       4.287504802772e+02 
       4.629654199663e-01       3.987474680383e+02 
       4.799783501994e-01       3.692167587395e+02 
       4.979227319373e-01       3.412147918673e+02 
       5.169121270864e-01       3.154592811499e+02 
       5.370841404489e-01       2.908124194240e+02 
       5.586070464571e-01       2.670821267112e+02 
       5.816885094930e-01       2.447866603252e+02 
       6.065870144995e-01       2.235452226418e+02 
       6.336266468475e-01       2.031881389279e+02 
       6.632156059511e-01       1.838568263160e+02 
       6.958678639262e-01       1.653338215213e+02 
       7.322247985589e-01       1.476754713602e+02 
       7.730680195113e-01       1.308142314670e+02 
       8.193049553677e-01       1.148122959364e+02 
       8.718988016039e-01       9.974425161888e+01 
       9.317218031081e-01       8.576023298302e+01 
       9.993660908989e-01       7.303800217463e+01 
       1.075037110174e+00       6.171989880057e+01 
       1.158653485707e+00       5.186368988807e+01 
       1.250099157308e+00       4.342580771245e+01 
       1.349432401273e+00       3.627566281744e+01 
       1.456947457397e+00       3.025520641570e+01 
       1.573135111331e+00       2.520231125609e+01 
       1.698621895592e+00       2.097053202924e+01 
       1.834127512934e+00       1.743163336223e+01 
       1.980444934528e+00       1.447555122603e+01 
       2.138435191726e+00       1.200943445695e+01 
       2.309029199186e+00       9.954286997328e+00 
       2.493232377687e+00       8.243492096480e+00 
       2.692130395285e+00       6.820841494867e+00 
       2.906895534573e+00       5.638992587001e+00 
       3.138793597714e+00       4.658124478371e+00 
       3.389191366484e+00       3.844798326768e+00 
       3.659564657905e+00       3.171070013391e+00 
       3.951507022538e+00       2.613425622427e+00 
       4.266739136701e+00       2.152255093267e+00 
       4.607118943941e+00       1.771231939835e+00 
       4.974652605557e+00       1.456631874637e+00 
       5.371506324689e+00       1.197098298957e+00 
       5.800019113685e+00       9.831355313615e-01 
       6.262716579983e+00       8.068901932429e-01 
       6.762325811764e+00       6.618079968922e-01 
       7.301791451110e+00       5.424665086894e-01 
       7.884293049406e+00       4.443642305410e-01 
       8.513263807261e+00       3.637764843344e-01 
       9.192410809424e+00       2.976166124886e-01 
       9.925736873929e+00       2.433406157793e-01 
       1.071756414427e+01       1.988379730270e-01 
       1.157255956364e+01       1.623730959302e-01 
       1.249576238137e+01       1.325113268151e-01 
       1.349261385375e+01       1.080712309388e-01 
       1.456898931416e+01       8.808345568756e-02 
       1.573123280165e+01       7.174423333211e-02 
       1.698619445202e+01       5.839558102085e-02 
       1.834127087176e+01       4.749740460353e-02 
       1.980444873285e+01       3.860484890111e-02 
       2.138435184532e+01       3.135289550156e-02 
       2.309029198506e+01       2.544273329642e-02 
       2.493232377636e+01       2.062977749464e-02 
       2.692130395282e+01       1.671188989138e-02 
       2.906895534573e+01       1.352494003581e-02 
       3.138793597714e+01       1.093469258314e-02 
       3.389191366484e+01       8.830789490014e-03 
       3.659564657905e+01       7.123090316611e-03 
       3.951507022538e+01       5.738322833401e-03 
       4.266739136701e+01       4.616167771750e-03 
       4.607118943941e+01       3.707622412804e-03 
       4.974652605557e+01       2.973038509744e-03 
       5.371506324689e+01       2.379475192815e-03 
       5.800019113685e+01       1.900467305975e-03 
       6.262716579983e+01       1.514497864055e-03 
       6.762325811764e+01       1.203847667760e-03 
       7.301791451110e+01       9.542371688160e-04 
       7.884293049406e+01       7.540135056883e-04 
       8.513263807261e+01       5.937568599458e-04 
       9.192410809424e+01       4.657033703721e-04 
       9.925736873929e+01       3.637021112384e-04 
       1.071756414427e+02       2.826510419485e-04 
       1.157255956364e+02       2.184505747414e-04 
       1.249576238137e+02       1.677949517583e-04 
       1.349261385375e+02       1.279886801144e-04 
       1.456898931416e+02       9.686012304004e-05 
       1.573123280165e+02       7.264720127121e-05 
