# Matter power spectrum P(k) at redshift z=0
# for k=1.04775e-05 to 157.312 h/Mpc,
# number of wavenumbers equal to 257
#    1:k (h/Mpc)              2:P (Mpc/h)^3        
       1.047750691338e-05       5.020963906848e+01 
       1.131335172818e-05       5.407048937346e+01 
       1.221587619877e-05       5.822820724063e+01 
       1.319039970550e-05       6.270562048513e+01 
       1.424266598317e-05       6.752731476117e+01 
       1.537887697396e-05       7.271975715448e+01 
       1.660572938097e-05       7.831147101131e+01 
       1.793045413791e-05       8.433312302052e+01 
       1.936085902737e-05       9.081780130666e+01 
       2.090537469909e-05       9.780107466978e+01 
       2.257310435923e-05       1.053212938600e+02 
       2.437387742372e-05       1.134197268475e+02 
       2.631830745176e-05       1.221408286681e+02 
       2.841785470091e-05       1.315324590478e+02 
       3.068489367268e-05       1.416461664006e+02 
       3.313278604643e-05       1.525374480741e+02 
       3.577595943165e-05       1.642660519538e+02 
       3.862999240274e-05       1.768963424260e+02 
       4.171170631739e-05       1.904975997482e+02 
       4.503926445983e-05       2.051444243230e+02 
       4.863227909323e-05       2.209171407389e+02 
       5.251192705226e-05       2.379022267279e+02 
       5.670107455699e-05       2.561927841728e+02 
       6.122441198393e-05       2.758890477036e+02 
       6.610859938837e-05       2.970989216237e+02 
       7.138242363583e-05       3.199385559933e+02 
       7.707696806873e-05       3.445329726985e+02 
       8.322579570814e-05       3.710167324164e+02 
       8.986514707061e-05       3.995346444355e+02 
       9.703415376577e-05       4.302425389364e+02 
       1.047750691338e-04       4.633080773457e+02 
       1.131335172818e-04       4.989116272955e+02 
       1.221587619877e-04       5.372471938685e+02 
       1.319039970550e-04       5.785234111775e+02 
       1.424266598317e-04       6.229645933379e+02 
       1.537887697396e-04       6.708118485984e+02 
       1.660572938097e-04       7.223242657285e+02 
       1.793045413791e-04       7.777801568587e+02 
       1.936085902737e-04       8.374783640765e+02 
       2.090537469909e-04       9.017396283223e+02 
       2.257310435923e-04       9.709080297646e+02 
       2.437387742372e-04       1.045352453313e+03 
       2.631830745176e-04       1.125468127199e+03 
       2.841785470091e-04       1.211678185925e+03 
       3.068489367268e-04       1.304435256063e+03 
       3.313278604643e-04       1.404223062886e+03 
       3.577595943165e-04       1.511558029572e+03 
       3.862999240274e-04       1.626990852546e+03 
       4.171170631739e-04       1.751108045575e+03 
       4.503926445983e-04       1.884533404593e+03 
       4.863227909323e-04       2.027929406961e+03 
       5.251192705226e-04       2.181998483873e+03 
       5.670107455699e-04       2.347484146060e+03 
       6.122441198393e-04       2.525171925120e+03 
       6.610859938837e-04       2.715890054867e+03 
       7.138242363583e-04       2.920509778871e+03 
       7.707696806873e-04       3.139945207826e+03 
       8.322579570814e-04       3.375152476673e+03 
       8.986514707061e-04       3.627128019994e+03 
       9.703415376577e-04       3.896905669103e+03 
       1.047750691338e-03       4.185552451688e+03 
       1.131335172818e-03       4.494162774173e+03 
       1.221587619877e-03       4.823851148599e+03 
       1.319039970550e-03       5.175743275867e+03 
       1.424266598317e-03       5.551020294496e+03 
       1.537887697396e-03       5.950789179223e+03 
       1.660572938097e-03       6.376124140914e+03 
       1.793045413791e-03       6.828075223220e+03 
       1.936085902737e-03       7.307627031629e+03 
       2.090537469909e-03       7.815673922651e+03 
       2.257310435923e-03       8.352992882626e+03 
       2.437387742372e-03       8.920214248348e+03 
       2.631830745176e-03       9.517787084444e+03 
       2.841785470091e-03       1.014594118994e+04 
       3.068489367268e-03       1.080465119980e+04 
       3.313278604643e-03       1.149358213671e+04 
       3.577595943165e-03       1.221204554330e+04 
       3.862999240274e-03       1.295893737221e+04 
       4.171170631739e-03       1.373267438404e+04 
       4.503926445983e-03       1.453113478939e+04 
       4.863227909323e-03       1.535157018894e+04 
       5.251192705226e-03       1.619066088163e+04 
       5.670107455699e-03       1.704433565143e+04 
       6.122441198393e-03       1.790757762502e+04 
       6.610859938837e-03       1.877461994715e+04 
       7.138242363583e-03       1.963873836137e+04 
       7.707696806873e-03       2.049216484970e+04 
       8.322579570814e-03       2.132607723171e+04 
       8.986514707061e-03       2.213055255465e+04 
       9.703415376577e-03       2.289445311941e+04 
       1.047750691338e-02       2.360547009525e+04 
       1.131335172818e-02       2.425020771013e+04 
       1.221587619877e-02       2.481420315829e+04 
       1.319039970550e-02       2.528214209918e+04 
       1.424266598317e-02       2.563807600072e+04 
       1.537887697392e-02       2.586597789711e+04 
       1.660572938023e-02       2.595014402717e+04 
       1.793045412706e-02       2.587619179167e+04 
       1.936085890181e-02       2.563198912343e+04 
       2.090537352463e-02       2.520909558942e+04 
       2.257309535333e-02       2.460411686736e+04 
       2.437382002918e-02       2.382046886912e+04 
       2.631799944462e-02       2.286992238258e+04 
       2.841644545389e-02       2.177385634255e+04 
       3.067933355377e-02       2.056477477831e+04 
       3.311368470740e-02       1.928633334379e+04 
       3.571840443502e-02       1.799283080675e+04 
       3.847720348444e-02       1.674547684275e+04 
       4.135335538431e-02       1.560301208827e+04 
       4.429361667738e-02       1.460853892187e+04 
       4.724366439141e-02       1.377845032013e+04 
       5.016480835311e-02       1.310274800468e+04 
       5.303989620246e-02       1.255465300394e+04 
       5.586870669566e-02       1.210148925011e+04 
       5.866042680613e-02       1.171168979664e+04 
       6.142798932958e-02       1.135730226801e+04 
       6.418496440164e-02       1.101521099452e+04 
       6.694418833788e-02       1.066715007918e+04 
       6.971731106057e-02       1.029989756178e+04 
       7.251476155766e-02       9.905186057485e+03 
       7.534587671527e-02       9.479781657267e+03 
       7.821907666265e-02       9.025430821999e+03 
       8.114203772912e-02       8.548135121462e+03 
       8.412184535029e-02       8.057662018407e+03 
       8.716512279304e-02       7.566419464998e+03 
       9.027813695930e-02       7.088038148772e+03 
       9.346688431697e-02       6.635991012463e+03 
       9.673716028275e-02       6.222082758368e+03 
       1.000946150830e-01       5.855195967077e+03 
       1.035447986537e-01       5.540423545719e+03 
       1.070931966762e-01       5.278142322442e+03 
       1.107452594425e-01       5.064256214771e+03 
       1.145064249153e-01       4.889922303743e+03 
       1.183821370918e-01       4.742328169245e+03 
       1.223778605862e-01       4.606039518247e+03 
       1.264990921987e-01       4.464759270640e+03 
       1.307513701367e-01       4.304291517658e+03 
       1.351402814784e-01       4.115306327644e+03 
       1.396714684203e-01       3.895933303481e+03 
       1.443506338194e-01       3.652476029215e+03 
       1.491835465229e-01       3.398290636365e+03 
       1.541760469708e-01       3.150472752831e+03 
       1.593340535561e-01       2.925729314830e+03 
       1.646635702297e-01       2.736091539340e+03 
       1.701706958456e-01       2.585880840851e+03 
       1.758616357459e-01       2.470741827910e+03 
       1.817427160982e-01       2.378549857678e+03 
       1.878204015065e-01       2.293598559830e+03 
       1.941013164283e-01       2.198893620746e+03 
       2.005922709503e-01       2.083896901444e+03 
       2.073002914972e-01       1.949535044886e+03 
       2.142326570816e-01       1.807283209641e+03 
       2.213969417533e-01       1.672389954377e+03 
       2.288010639706e-01       1.556943802391e+03 
       2.364533437147e-01       1.465736896103e+03 
       2.443625682930e-01       1.394483848695e+03 
       2.525380679504e-01       1.331302785136e+03 
       2.609898026346e-01       1.263737526842e+03 
       2.697284615565e-01       1.186211090075e+03 
       2.787655775689e-01       1.102194798028e+03 
       2.881136588829e-01       1.021655438826e+03 
       2.977863412677e-01       9.533714692697e+02 
       3.077985646929e-01       8.978871425189e+02 
       3.181667794071e-01       8.489700560779e+02 
       3.289091877812e-01       7.990016114864e+02 
       3.400460299658e-01       7.452268670136e+02 
       3.515999236474e-01       6.917940936477e+02 
       3.635962711085e-01       6.439598238349e+02 
       3.760637506334e-01       6.030206820548e+02 
       3.890349143879e-01       5.650339164110e+02 
       4.025469216825e-01       5.267085675843e+02 
       4.166424456376e-01       4.885969037150e+02 
       4.313708035863e-01       4.534707031902e+02 
       4.467893782977e-01       4.218067764631e+02 
       4.629654199663e-01       3.918352324851e+02 
       4.799783501994e-01       3.623495546587e+02 
       4.979227319373e-01       3.343975621440e+02 
       5.169121270864e-01       3.086870418014e+02 
       5.370841404489e-01       2.840919261825e+02 
       5.586070464571e-01       2.604243250896e+02 
       5.816885094930e-01       2.381906909507e+02 
       6.065870144995e-01       2.170180545537e+02 
       6.336266468475e-01       1.967380097226e+02 
       6.632156059511e-01       1.774893081358e+02 
       6.958678639262e-01       1.590570738434e+02 
       7.322247985589e-01       1.414995077601e+02 
       7.730680195113e-01       1.247497541149e+02 
       8.193049553677e-01       1.088722502290e+02 
       8.718988016039e-01       9.394262244271e+01 
       9.317218031081e-01       8.011166473572e+01 
       9.993660908989e-01       6.755559814936e+01 
       1.075037110174e+00       5.641734792789e+01 
       1.158653485707e+00       4.675076582115e+01 
       1.250099157308e+00       3.850964054385e+01 
       1.349432401273e+00       3.156241217229e+01 
       1.456947457397e+00       2.574893493513e+01 
       1.573135111331e+00       2.090705517491e+01 
       1.698621895592e+00       1.688888985417e+01 
       1.834127512934e+00       1.356587653513e+01 
       1.980444934528e+00       1.082741461080e+01 
       2.138435191726e+00       8.579810886218e+00 
       2.309029199186e+00       6.743530635363e+00 
       2.493232377687e+00       5.251083110763e+00 
       2.692130395285e+00       4.045512260372e+00 
       2.906895534573e+00       3.078585987968e+00 
       3.138793597714e+00       2.309534155670e+00 
       3.389191366484e+00       1.703886643639e+00 
       3.659564657905e+00       1.232551149788e+00 
       3.951507022538e+00       8.709141318570e-01 
       4.266739136701e+00       5.981751757953e-01 
       4.607118943941e+00       3.967575032150e-01 
       4.974652605557e+00       2.518659954679e-01 
       5.371506324689e+00       1.510145602691e-01 
       5.800019113685e+00       8.378693937595e-02 
       6.262716579983e+00       4.152825871383e-02 
       6.762325811764e+00       1.714566691311e-02 
       7.301791451110e+00       4.941988706828e-03 
       7.884293049406e+00       4.480556961602e-04 
       8.513263807261e+00       2.954480677239e-04 
       9.192410809424e+00       2.079464556598e-03 
       9.925736873929e+00       4.220242259759e-03 
       1.071756414427e+01       5.817681823665e-03 
       1.157255956364e+01       6.503149361253e-03 
       1.249576238137e+01       6.274671391815e-03 
       1.349261385375e+01       5.366162348039e-03 
       1.456898931416e+01       4.097589017736e-03 
       1.573123280165e+01       2.780786794360e-03 
       1.698619445202e+01       1.647651465716e-03 
       1.834127087176e+01       8.203719624653e-04 
       1.980444873285e+01       3.152865117517e-04 
       2.138435184532e+01       7.370306571474e-05 
       2.309029198506e+01       2.343464145023e-06 
       2.493232377636e+01       1.069596586148e-05 
       2.692130395282e+01       3.519176630494e-05 
       2.906895534573e+01       4.590805853348e-05 
       3.138793597714e+01       3.919420224538e-05 
       3.389191366484e+01       2.410020207362e-05 
       3.659564657905e+01       1.042645692140e-05 
       3.951507022538e+01       2.669706909745e-06 
       4.266739136701e+01       1.574651253813e-07 
       4.607118943941e+01       1.345096614016e-07 
       4.974652605557e+01       4.579864575351e-07 
       5.371506324689e+01       4.254622664141e-07 
       5.800019113685e+01       2.034985995250e-07 
       6.262716579983e+01       4.611081561593e-08 
       6.762325811764e+01       1.278962870450e-09 
       7.301791451110e+01       2.751044980950e-09 
       7.884293049406e+01       4.266166802897e-09 
       8.513263807261e+01       1.514350984979e-09 
       9.192410809424e+01       5.927278642981e-11 
       9.925736873929e+01       1.099086814725e-10 
       1.071756414427e+02       2.007774224791e-10 
       1.157255956364e+02       1.029491782895e-10 
       1.249576238137e+02       2.942144386372e-11 
       1.349261385375e+02       9.500142298102e-12 
       1.456898931416e+02       7.107798674575e-12 
       1.573123280165e+02       7.846630118126e-12 
