# Matter power spectrum P(k) at redshift z=99
# for k=1.04775e-05 to 66.1767 h/Mpc,
# number of wavenumbers equal to 130
#    1:k (h/Mpc)              2:P (Mpc/h)^3        
       1.047750691046e-05       7.261927682299e-03 
       1.319039970183e-05       9.069258203652e-03 
       1.660572937635e-05       1.132639106949e-02 
       2.090537469327e-05       1.414527123678e-02 
       2.631830744443e-05       1.766569584408e-02 
       3.313278603720e-05       2.206225516378e-02 
       4.171170630578e-05       2.755297766818e-02 
       5.251192703764e-05       3.441013523633e-02 
       6.610859936996e-05       4.297372173626e-02 
       8.322579568497e-05       5.366826853999e-02 
       1.047750691046e-04       6.702379874095e-02 
       1.319039970183e-04       8.370193442935e-02 
       1.660572937635e-04       1.045283355589e-01 
       2.090537469327e-04       1.305329134359e-01 
       2.631830744443e-04       1.629994506920e-01 
       3.313278603720e-04       2.035264004993e-01 
       4.171170630578e-04       2.541004744724e-01 
       5.251192703764e-04       3.171839529142e-01 
       6.610859936996e-04       3.958147257209e-01 
       8.322579568497e-04       4.937136007303e-01 
       1.047750691046e-03       6.153841636914e-01 
       1.319039970183e-03       7.661720593681e-01 
       1.660572937635e-03       9.522588016971e-01 
       2.090537469327e-03       1.180312991616e+00 
       2.631830744443e-03       1.456802684246e+00 
       3.313278603720e-03       1.786503852706e+00 
       4.171170630578e-03       2.169896177449e+00 
       5.251192703764e-03       2.599430621774e+00 
       6.610859936996e-03       3.055668691222e+00 
       8.322579568497e-03       3.505725069980e+00 
       1.047750691046e-02       3.905491115559e+00 
       1.319039970183e-02       4.200915044581e+00 
       1.660572937633e-02       4.325061127406e+00 
       2.090537453514e-02       4.210201676616e+00 
       2.631818545635e-02       3.825147002351e+00 
       3.311571692125e-02       3.229059503871e+00 
       4.113809243311e-02       2.627726308402e+00 
       4.792590854610e-02       2.280782122601e+00 
       5.284436902701e-02       2.110072282556e+00 
       5.689644391095e-02       2.003528515909e+00 
       6.051252627066e-02       1.923040108267e+00 
       6.388413457411e-02       1.852720718287e+00 
       6.711249296401e-02       1.784546795010e+00 
       7.025823437965e-02       1.714258411338e+00 
       7.336115587705e-02       1.639796488515e+00 
       7.644928796912e-02       1.560644497795e+00 
       7.954353299775e-02       1.477437122973e+00 
       8.266024078725e-02       1.391673256735e+00 
       8.581273398637e-02       1.305439914549e+00 
       8.901225918437e-02       1.221103629915e+00 
       9.226860540985e-02       1.141059011942e+00 
       9.559052048996e-02       1.067435561963e+00 
       9.898599946599e-02       1.001866795551e+00 
       1.024624891378e-01       9.453555424638e-01 
       1.060270359164e-01       8.981249253463e-01 
       1.096863943056e-01       8.595883148108e-01 
       1.134471073830e-01       8.283783893043e-01 
       1.173155669539e-01       8.024414709679e-01 
       1.212980586983e-01       7.792027707928e-01 
       1.254007961065e-01       7.558888082729e-01 
       1.296299459934e-01       7.299528294724e-01 
       1.339916477160e-01       6.995632783407e-01 
       1.384920277736e-01       6.640499310034e-01 
       1.431372111762e-01       6.241179428545e-01 
       1.479333307714e-01       5.817341829809e-01 
       1.528865355934e-01       5.396610486833e-01 
       1.580029992204e-01       5.007837360103e-01 
       1.632889290723e-01       4.673696251105e-01 
       1.687505775527e-01       4.405041188201e-01 
       1.743942559171e-01       4.198352616129e-01 
       1.802263517371e-01       4.036274429263e-01 
       1.862533508214e-01       3.893275523235e-01 
       1.924818644494e-01       3.741029430652e-01 
       1.989186627765e-01       3.557698621435e-01 
       2.055707152847e-01       3.339672760970e-01 
       2.124452391818e-01       3.102337564881e-01 
       2.195497567139e-01       2.870901432807e-01 
       2.268921624510e-01       2.667761703699e-01 
       2.344808017550e-01       2.504513176828e-01 
       2.423245618548e-01       2.378008952595e-01 
       2.504329772620e-01       2.270787271390e-01 
       2.588163516754e-01       2.160839145023e-01 
       2.674858990930e-01       2.035119405676e-01 
       2.764539076010e-01       1.895643281656e-01 
       2.857339303080e-01       1.757244833940e-01 
       2.953410092148e-01       1.636665225515e-01 
       3.052919395542e-01       1.538735669116e-01 
       3.156055844677e-01       1.454984809842e-01 
       3.263032530092e-01       1.372173468762e-01 
       3.374091587054e-01       1.282693877135e-01 
       3.489509817175e-01       1.191387657491e-01 
       3.609605657343e-01       1.107749946786e-01 
       3.734747921333e-01       1.036131950134e-01 
       3.865366902904e-01       9.710920257165e-02 
       4.001968667448e-01       9.058344946839e-02 
       4.145153713076e-01       8.400515341992e-02 
       4.295641718077e-01       7.785967096841e-02 
       4.454304922144e-01       7.231022359328e-02 
       4.622214006969e-01       6.706250826228e-02 
       4.800702491654e-01       6.186081887330e-02 
       4.991459272112e-01       5.689581948757e-02 
       5.196665217302e-01       5.228564555525e-02 
       5.419201087032e-01       4.780257139074e-02 
       5.662975451962e-01       4.345723219688e-02 
       5.933463737275e-01       3.930171212821e-02 
       6.238638458458e-01       3.522454197107e-02 
       6.590669257916e-01       3.123434139109e-02 
       7.009246080454e-01       2.725931691585e-02 
       7.528593308799e-01       2.325109835245e-02 
       8.213469537518e-01       1.912173484034e-02 
       9.196980813302e-01       1.479157856000e-02 
       1.075112183810e+00       1.032698504502e-02 
       1.322697471132e+00       6.357557832199e-03 
       1.662328205042e+00       3.685905262039e-03 
       2.092692408506e+00       2.106887989584e-03 
       2.634543445090e+00       1.192303909975e-03 
       3.316693691389e+00       6.679193167111e-04 
       4.175469971226e+00       3.700749068249e-04 
       5.256605252960e+00       2.024441865591e-04 
       6.617673932723e+00       1.089915904446e-04 
       8.331157880872e+00       5.744331584625e-05 
       1.048830636590e+01       2.938492226082e-05 
       1.320399541071e+01       1.439065291721e-05 
       1.662284535976e+01       6.599612584613e-06 
       2.092692243973e+01       2.731611063111e-06 
       2.634543445002e+01       9.549718802923e-07 
       3.316693691389e+01       2.451180109659e-07 
       4.175469971226e+01       2.998324407989e-08 
       5.256605252960e+01       2.065856578121e-10 
       6.617673932723e+01       8.653706129176e-09 
