# Matter power spectrum P(k) at redshift z=0
# for k=1.04775e-05 to 66.1767 h/Mpc,
# number of wavenumbers equal to 130
#    1:k (h/Mpc)              2:P (Mpc/h)^3        
       1.047750691046e-05       5.020964811373e+01 
       1.319039970183e-05       6.270562595560e+01 
       1.660572937635e-05       7.831147247913e+01 
       2.090537469327e-05       9.780108070057e+01 
       2.631830744443e-05       1.221408203811e+02 
       3.313278603720e-05       1.525374501933e+02 
       4.171170630578e-05       1.904975994029e+02 
       5.251192703764e-05       2.379022224199e+02 
       6.610859936996e-05       2.970989227886e+02 
       8.322579568497e-05       3.710167318947e+02 
       1.047750691046e-04       4.633080766743e+02 
       1.319039970183e-04       5.785234129351e+02 
       1.660572937635e-04       7.223242666092e+02 
       2.090537469327e-04       9.017396271823e+02 
       2.631830744443e-04       1.125468123754e+03 
       3.313278603720e-04       1.404223053681e+03 
       4.171170630578e-04       1.751108028787e+03 
       5.251192703764e-04       2.181998448131e+03 
       6.610859936996e-04       2.715889983591e+03 
       8.322579568497e-04       3.375152337102e+03 
       1.047750691046e-03       4.185552174259e+03 
       1.319039970183e-03       5.175742742562e+03 
       1.660572937635e-03       6.376123051530e+03 
       2.090537469327e-03       7.815671867437e+03 
       2.631830744443e-03       9.517783066275e+03 
       3.313278603720e-03       1.149357459549e+04 
       4.171170630578e-03       1.373266001062e+04 
       5.251192703764e-03       1.619063599200e+04 
       6.610859936996e-03       1.877460410293e+04 
       8.322579568497e-03       2.132611360206e+04 
       1.047750691046e-02       2.360549020369e+04 
       1.319039970183e-02       2.528218897308e+04 
       1.660572937633e-02       2.595027046792e+04 
       2.090537453514e-02       2.520933297926e+04 
       2.631818545635e-02       2.287033035917e+04 
       3.311571692125e-02       1.928620374621e+04 
       4.113809243311e-02       1.568425430783e+04 
       4.792590854610e-02       1.361056998490e+04 
       5.284436902701e-02       1.259120126847e+04 
       5.689644391095e-02       1.195547594316e+04 
       6.051252627066e-02       1.147536324992e+04 
       6.388413457411e-02       1.105577406475e+04 
       6.711249296401e-02       1.064887688154e+04 
       7.025823437965e-02       1.022915900966e+04 
       7.336115587705e-02       9.784367264601e+03 
       7.644928796912e-02       9.311533480076e+03 
       7.954353299775e-02       8.814390204042e+03 
       8.266024078725e-02       8.301994915248e+03 
       8.581273398637e-02       7.786784861875e+03 
       8.901225918437e-02       7.283039858393e+03 
       9.226860540985e-02       6.805005235989e+03 
       9.559052048996e-02       6.365471151012e+03 
       9.898599946599e-02       5.974230635136e+03 
       1.024624891378e-01       5.637159597622e+03 
       1.060270359164e-01       5.355601664397e+03 
       1.096863943056e-01       5.126076816195e+03 
       1.134471073830e-01       4.940291032907e+03 
       1.173155669539e-01       4.785965750426e+03 
       1.212980586983e-01       4.647730128868e+03 
       1.254007961065e-01       4.508943680140e+03 
       1.296299459934e-01       4.354326993959e+03 
       1.339916477160e-01       4.172996050405e+03 
       1.384920277736e-01       3.960942217291e+03 
       1.431372111762e-01       3.722460830731e+03 
       1.479333307714e-01       3.469338118330e+03 
       1.528865355934e-01       3.218127460399e+03 
       1.580029992204e-01       2.986038814199e+03 
       1.632889290723e-01       2.786719634511e+03 
       1.687505775527e-01       2.626587967372e+03 
       1.743942559171e-01       2.503523847190e+03 
       1.802263517371e-01       2.407079519510e+03 
       1.862533508214e-01       2.321995293178e+03 
       1.924818644494e-01       2.231291252704e+03 
       1.989186627765e-01       2.121923186387e+03 
       2.055707152847e-01       1.991756437166e+03 
       2.124452391818e-01       1.850066793847e+03 
       2.195497567139e-01       1.711901422928e+03 
       2.268921624510e-01       1.590717029722e+03 
       2.344808017550e-01       1.493394075838e+03 
       2.423245618548e-01       1.418034660639e+03 
       2.504329772620e-01       1.354179238060e+03 
       2.588163516754e-01       1.288648826938e+03 
       2.674858990930e-01       1.213649008703e+03 
       2.764539076010e-01       1.130408104286e+03 
       2.857339303080e-01       1.047810848317e+03 
       2.953410092148e-01       9.758965959761e+02 
       3.052919395542e-01       9.175209835421e+02 
       3.156055844677e-01       8.676071697932e+02 
       3.263032530092e-01       8.182356124618e+02 
       3.374091587054e-01       7.648548454370e+02 
       3.489509817175e-01       7.103822030667e+02 
       3.609605657343e-01       6.604921127359e+02 
       3.734747921333e-01       6.177935525318e+02 
       3.865366902904e-01       5.790161275459e+02 
       4.001968667448e-01       5.400969044267e+02 
       4.145153713076e-01       5.008590641292e+02 
       4.295641718077e-01       4.642050329130e+02 
       4.454304922144e-01       4.311140471390e+02 
       4.622214006969e-01       3.998194862547e+02 
       4.800702491654e-01       3.687977915187e+02 
       4.991459272112e-01       3.391836728736e+02 
       5.196665217302e-01       3.116943313246e+02 
       5.419201087032e-01       2.849560878728e+02 
       5.662975451962e-01       2.590426309365e+02 
       5.933463737275e-01       2.342613415802e+02 
       6.238638458458e-01       2.099449037201e+02 
       6.590669257916e-01       1.861504043143e+02 
       7.009246080454e-01       1.624452476742e+02 
       7.528593308799e-01       1.385412776313e+02 
       8.213469537518e-01       1.139163696016e+02 
       9.196980813302e-01       8.809417788225e+01 
       1.075112183810e+00       6.147184883703e+01 
       1.322697471132e+00       3.780401657381e+01 
       1.662328205042e+00       2.187778104609e+01 
       2.092692408506e+00       1.246845154566e+01 
       2.634543445090e+00       7.022399281720e+00 
       3.316693691389e+00       3.904054232184e+00 
       4.175469971226e+00       2.137026821409e+00 
       5.256605252960e+00       1.146786263056e+00 
       6.617673932723e+00       5.989565058643e-01 
       8.331157880872e+00       3.009504740457e-01 
       1.048830636590e+01       1.427643144204e-01 
       1.320399541071e+01       6.199332635512e-02 
       1.662284535976e+01       2.334605656750e-02 
       2.092692243973e+01       6.854054731323e-03 
       2.634543445002e+01       1.189256714862e-03 
       3.316693691389e+01       2.107181161647e-05 
       4.175469971226e+01       9.872168348468e-05 
       5.256605252960e+01       1.631903945000e-04 
       6.617673932723e+01       7.572993614025e-05 
