# Matter power spectrum P(k) at redshift z=0
# for k=1.04775e-05 to 66.1767 h/Mpc,
# number of wavenumbers equal to 130
#    1:k (h/Mpc)              2:P (Mpc/h)^3        
       1.047750691046e-05       5.020964811401e+01 
       1.319039970183e-05       6.270562595979e+01 
       1.660572937635e-05       7.831147247913e+01 
       2.090537469327e-05       9.780108070492e+01 
       2.631830744443e-05       1.221408203812e+02 
       3.313278603720e-05       1.525374501933e+02 
       4.171170630578e-05       1.904975994043e+02 
       5.251192703764e-05       2.379022224172e+02 
       6.610859936996e-05       2.970989227888e+02 
       8.322579568497e-05       3.710167318948e+02 
       1.047750691046e-04       4.633080766744e+02 
       1.319039970183e-04       5.785234129356e+02 
       1.660572937635e-04       7.223242666092e+02 
       2.090537469327e-04       9.017396271824e+02 
       2.631830744443e-04       1.125468123757e+03 
       3.313278603720e-04       1.404223053681e+03 
       4.171170630578e-04       1.751108028785e+03 
       5.251192703764e-04       2.181998448131e+03 
       6.610859936996e-04       2.715889983591e+03 
       8.322579568497e-04       3.375152337100e+03 
       1.047750691046e-03       4.185552174273e+03 
       1.319039970183e-03       5.175742738986e+03 
       1.660572937635e-03       6.376123051320e+03 
       2.090537469327e-03       7.815671857966e+03 
       2.631830744443e-03       9.517783065072e+03 
       3.313278603720e-03       1.149357459206e+04 
       4.171170630578e-03       1.373265997854e+04 
       5.251192703764e-03       1.619063605799e+04 
       6.610859936996e-03       1.877460402135e+04 
       8.322579568497e-03       2.132607186964e+04 
       1.047750691046e-02       2.360548756126e+04 
       1.319039970183e-02       2.528218405634e+04 
       1.660572937633e-02       2.595025545587e+04 
       2.090537453514e-02       2.520934328047e+04 
       2.631818545635e-02       2.287035750719e+04 
       3.311571692125e-02       1.928618437082e+04 
       4.113809243311e-02       1.568417885378e+04 
       4.792590854610e-02       1.361051399007e+04 
       5.284436902701e-02       1.259120318079e+04 
       5.689644391095e-02       1.195543164567e+04 
       6.051252627066e-02       1.147530861206e+04 
       6.388413457411e-02       1.105572130903e+04 
       6.711249296401e-02       1.064885325964e+04 
       7.025823437965e-02       1.022909349786e+04 
       7.336115587705e-02       9.784338029085e+03 
       7.644928796912e-02       9.311448271767e+03 
       7.954353299775e-02       8.814347055684e+03 
       8.266024078725e-02       8.301952196578e+03 
       8.581273398637e-02       7.786737562401e+03 
       8.901225918437e-02       7.283001591020e+03 
       9.226860540985e-02       6.804976817839e+03 
       9.559052048996e-02       6.365422636916e+03 
       9.898599946599e-02       5.974159625553e+03 
       1.024624891378e-01       5.637127722669e+03 
       1.060270359164e-01       5.355599201219e+03 
       1.096863943056e-01       5.126024575028e+03 
       1.134471073830e-01       4.940256668345e+03 
       1.173155669539e-01       4.785937814721e+03 
       1.212980586983e-01       4.647695919282e+03 
       1.254007961065e-01       4.508909697366e+03 
       1.296299459934e-01       4.354300128390e+03 
       1.339916477160e-01       4.172966171428e+03 
       1.384920277736e-01       3.960920560057e+03 
       1.431372111762e-01       3.722401312132e+03 
       1.479333307714e-01       3.469307231482e+03 
       1.528865355934e-01       3.218075225982e+03 
       1.580029992204e-01       2.986021205943e+03 
       1.632889290723e-01       2.786696495842e+03 
       1.687505775527e-01       2.626559542778e+03 
       1.743942559171e-01       2.503503164786e+03 
       1.802263517371e-01       2.407061660472e+03 
       1.862533508214e-01       2.321980548515e+03 
       1.924818644494e-01       2.231273157043e+03 
       1.989186627765e-01       2.121905625960e+03 
       2.055707152847e-01       1.991755371441e+03 
       2.124452391818e-01       1.850046697429e+03 
       2.195497567139e-01       1.711892716418e+03 
       2.268921624510e-01       1.590705467756e+03 
       2.344808017550e-01       1.493392600007e+03 
       2.423245618548e-01       1.418024828157e+03 
       2.504329772620e-01       1.354181111506e+03 
       2.588163516754e-01       1.288646867724e+03 
       2.674858990930e-01       1.213650113740e+03 
       2.764539076010e-01       1.130412100573e+03 
       2.857339303080e-01       1.047821472830e+03 
       2.953410092148e-01       9.759059271483e+02 
       3.052919395542e-01       9.175311356182e+02 
       3.156055844677e-01       8.676200664737e+02 
       3.263032530092e-01       8.182509758646e+02 
       3.374091587054e-01       7.648731653881e+02 
       3.489509817175e-01       7.104029542175e+02 
       3.609605657343e-01       6.605181203507e+02 
       3.734747921333e-01       6.178154548665e+02 
       3.865366902904e-01       5.790444557535e+02 
       4.001968667448e-01       5.401277432909e+02 
       4.145153713076e-01       5.008922137026e+02 
       4.295641718077e-01       4.642421901064e+02 
       4.454304922144e-01       4.311513873055e+02 
       4.622214006969e-01       3.998621569500e+02 
       4.800702491654e-01       3.688412994755e+02 
       4.991459272112e-01       3.392309387406e+02 
       5.196665217302e-01       3.117437861381e+02 
       5.419201087032e-01       2.850084148111e+02 
       5.662975451962e-01       2.590961657612e+02 
       5.933463737275e-01       2.343177953699e+02 
       6.238638458458e-01       2.100044919907e+02 
       6.590669257916e-01       1.862130932922e+02 
       7.009246080454e-01       1.625104674946e+02 
       7.528593308799e-01       1.386106995641e+02 
       8.213469537518e-01       1.139890333322e+02 
       9.196980813302e-01       8.817082670670e+01 
       1.075112183810e+00       6.155258630869e+01 
       1.322697471132e+00       3.788784410774e+01 
       1.662328205042e+00       2.196282881094e+01 
       2.092692408506e+00       1.255212074350e+01 
       2.634543445090e+00       7.102517418455e+00 
       3.316693691389e+00       3.978881320823e+00 
       4.175469971226e+00       2.205198393534e+00 
       5.256605252960e+00       1.207280603595e+00 
       6.617673932723e+00       6.510792452981e-01 
       8.331157880872e+00       3.442815828739e-01 
       1.048830636590e+01       1.771788973728e-01 
       1.320399541071e+01       8.769856679722e-02 
       1.662284535976e+01       4.097247933925e-02 
       2.092692243973e+01       1.752252301742e-02 
       2.634543445002e+01       6.504913196085e-03 
       3.316693691389e+01       1.889085716907e-03 
       4.175469971226e+01       3.282992779264e-04 
       5.256605252960e+01       6.722997255949e-06 
       6.617673932723e+01       2.451844466637e-05 
