# Matter power spectrum P(k) at redshift z=0
# for k=1.04775e-05 to 66.1767 h/Mpc,
# number of wavenumbers equal to 130
#    1:k (h/Mpc)              2:P (Mpc/h)^3        
       1.047750691046e-05       5.020964811350e+01 
       1.319039970183e-05       6.270562595304e+01 
       1.660572937635e-05       7.831147247912e+01 
       2.090537469327e-05       9.780108069794e+01 
       2.631830744443e-05       1.221408203811e+02 
       3.313278603720e-05       1.525374501933e+02 
       4.171170630578e-05       1.904975994021e+02 
       5.251192703764e-05       2.379022224216e+02 
       6.610859936996e-05       2.970989227886e+02 
       8.322579568497e-05       3.710167318947e+02 
       1.047750691046e-04       4.633080766742e+02 
       1.319039970183e-04       5.785234129347e+02 
       1.660572937635e-04       7.223242666091e+02 
       2.090537469327e-04       9.017396271823e+02 
       2.631830744443e-04       1.125468123753e+03 
       3.313278603720e-04       1.404223053680e+03 
       4.171170630578e-04       1.751108028787e+03 
       5.251192703764e-04       2.181998448130e+03 
       6.610859936996e-04       2.715889983588e+03 
       8.322579568497e-04       3.375152337099e+03 
       1.047750691046e-03       4.185552174236e+03 
       1.319039970183e-03       5.175742739875e+03 
       1.660572937635e-03       6.376123051451e+03 
       2.090537469327e-03       7.815671875879e+03 
       2.631830744443e-03       9.517783066801e+03 
       3.313278603720e-03       1.149357459712e+04 
       4.171170630578e-03       1.373266001583e+04 
       5.251192703764e-03       1.619063577375e+04 
       6.610859936996e-03       1.877460415604e+04 
       8.322579568497e-03       2.132611352496e+04 
       1.047750691046e-02       2.360548504753e+04 
       1.319039970183e-02       2.528219400611e+04 
       1.660572937633e-02       2.595024766511e+04 
       2.090537453514e-02       2.520933836732e+04 
       2.631818545635e-02       2.287027946818e+04 
       3.311571692125e-02       1.928623297982e+04 
       4.113809243311e-02       1.568425782764e+04 
       4.792590854610e-02       1.361054876271e+04 
       5.284436902701e-02       1.259120200499e+04 
       5.689644391095e-02       1.195550435689e+04 
       6.051252627066e-02       1.147540037453e+04 
       6.388413457411e-02       1.105577655431e+04 
       6.711249296401e-02       1.064892408386e+04 
       7.025823437965e-02       1.022917235693e+04 
       7.336115587705e-02       9.784457450869e+03 
       7.644928796912e-02       9.311494230353e+03 
       7.954353299775e-02       8.814389545009e+03 
       8.266024078725e-02       8.302061061838e+03 
       8.581273398637e-02       7.786802753160e+03 
       8.901225918437e-02       7.283008543519e+03 
       9.226860540985e-02       6.805056235264e+03 
       9.559052048996e-02       6.365515309365e+03 
       9.898599946599e-02       5.974269312610e+03 
       1.024624891378e-01       5.637204464016e+03 
       1.060270359164e-01       5.355652107638e+03 
       1.096863943056e-01       5.126087019189e+03 
       1.134471073830e-01       4.940310502483e+03 
       1.173155669539e-01       4.785982902915e+03 
       1.212980586983e-01       4.647761669827e+03 
       1.254007961065e-01       4.508965547296e+03 
       1.296299459934e-01       4.354341535016e+03 
       1.339916477160e-01       4.173013756298e+03 
       1.384920277736e-01       3.960966515488e+03 
       1.431372111762e-01       3.722453631149e+03 
       1.479333307714e-01       3.469347267526e+03 
       1.528865355934e-01       3.218138461742e+03 
       1.580029992204e-01       2.986050255702e+03 
       1.632889290723e-01       2.786736650082e+03 
       1.687505775527e-01       2.626598772303e+03 
       1.743942559171e-01       2.503533922161e+03 
       1.802263517371e-01       2.407100844373e+03 
       1.862533508214e-01       2.322011161644e+03 
       1.924818644494e-01       2.231300299256e+03 
       1.989186627765e-01       2.121926995461e+03 
       2.055707152847e-01       1.991768648591e+03 
       2.124452391818e-01       1.850065342506e+03 
       2.195497567139e-01       1.711909723723e+03 
       2.268921624510e-01       1.590728872632e+03 
       2.344808017550e-01       1.493401338861e+03 
       2.423245618548e-01       1.418037104311e+03 
       2.504329772620e-01       1.354192663460e+03 
       2.588163516754e-01       1.288657672930e+03 
       2.674858990930e-01       1.213653648504e+03 
       2.764539076010e-01       1.130410394181e+03 
       2.857339303080e-01       1.047814102545e+03 
       2.953410092148e-01       9.758949478498e+02 
       3.052919395542e-01       9.175218480824e+02 
       3.156055844677e-01       8.676073859228e+02 
       3.263032530092e-01       8.182326320834e+02 
       3.374091587054e-01       7.648504677880e+02 
       3.489509817175e-01       7.103767908237e+02 
       3.609605657343e-01       6.604903953424e+02 
       3.734747921333e-01       6.177889770327e+02 
       3.865366902904e-01       5.790111154546e+02 
       4.001968667448e-01       5.400898406070e+02 
       4.145153713076e-01       5.008510926799e+02 
       4.295641718077e-01       4.641971182166e+02 
       4.454304922144e-01       4.311055758803e+02 
       4.622214006969e-01       3.998103700189e+02 
       4.800702491654e-01       3.687849764434e+02 
       4.991459272112e-01       3.391731387085e+02 
       5.196665217302e-01       3.116823934875e+02 
       5.419201087032e-01       2.849432255650e+02 
       5.662975451962e-01       2.590286685128e+02 
       5.933463737275e-01       2.342458118558e+02 
       6.238638458458e-01       2.099285957254e+02 
       6.590669257916e-01       1.861344177942e+02 
       7.009246080454e-01       1.624280191600e+02 
       7.528593308799e-01       1.385231880820e+02 
       8.213469537518e-01       1.138969722699e+02 
       9.196980813302e-01       8.807404617456e+01 
       1.075112183810e+00       6.144996977630e+01 
       1.322697471132e+00       3.778139929894e+01 
       1.662328205042e+00       2.185497424647e+01 
       2.092692408506e+00       1.244612292417e+01 
       2.634543445090e+00       7.001333792997e+00 
       3.316693691389e+00       3.884554312110e+00 
       4.175469971226e+00       2.119472561170e+00 
       5.256605252960e+00       1.131428730023e+00 
       6.617673932723e+00       5.859999517663e-01 
       8.331157880872e+00       2.904826795390e-01 
       1.048830636590e+01       1.348137478503e-01 
       1.320399541071e+01       5.645029296625e-02 
       1.662284535976e+01       1.995853120875e-02 
       2.092692243973e+01       5.184655074184e-03 
       2.634543445002e+01       6.516472718857e-04 
       3.316693691389e+01       2.073949983436e-06 
       4.175469971226e+01       1.526140613568e-04 
       5.256605252960e+01       1.409721569015e-04 
       6.617673932723e+01       3.664562999806e-05 
