# Matter power spectrum P(k) at redshift z=0
# for k=1.04775e-05 to 157.312 h/Mpc,
# number of wavenumbers equal to 257
#    1:k (h/Mpc)              2:P (Mpc/h)^3        
       1.047750691338e-05       5.020963906804e+01 
       1.131335172818e-05       5.407048937153e+01 
       1.221587619877e-05       5.822820724030e+01 
       1.319039970550e-05       6.270562047283e+01 
       1.424266598317e-05       6.752731476099e+01 
       1.537887697396e-05       7.271975715396e+01 
       1.660572938097e-05       7.831147101243e+01 
       1.793045413791e-05       8.433312302133e+01 
       1.936085902737e-05       9.081780130647e+01 
       2.090537469909e-05       9.780107453601e+01 
       2.257310435923e-05       1.053212938596e+02 
       2.437387742372e-05       1.134197268469e+02 
       2.631830745176e-05       1.221408285643e+02 
       2.841785470091e-05       1.315324590474e+02 
       3.068489367268e-05       1.416461671255e+02 
       3.313278604643e-05       1.525374479403e+02 
       3.577595943165e-05       1.642660516745e+02 
       3.862999240274e-05       1.768963429326e+02 
       4.171170631739e-05       1.904975997812e+02 
       4.503926445983e-05       2.051444243234e+02 
       4.863227909323e-05       2.209171412046e+02 
       5.251192705226e-05       2.379022266164e+02 
       5.670107455699e-05       2.561927841262e+02 
       6.122441198393e-05       2.758890480661e+02 
       6.610859938837e-05       2.970989214025e+02 
       7.138242363583e-05       3.199385559930e+02 
       7.707696806873e-05       3.445329727005e+02 
       8.322579570814e-05       3.710167323997e+02 
       8.986514707061e-05       3.995346444128e+02 
       9.703415376577e-05       4.302425389349e+02 
       1.047750691338e-04       4.633080773458e+02 
       1.131335172818e-04       4.989116273824e+02 
       1.221587619877e-04       5.372471938791e+02 
       1.319039970550e-04       5.785234116824e+02 
       1.424266598317e-04       6.229645933166e+02 
       1.537887697396e-04       6.708118487495e+02 
       1.660572938097e-04       7.223242657749e+02 
       1.793045413791e-04       7.777801571201e+02 
       1.936085902737e-04       8.374783638364e+02 
       2.090537469909e-04       9.017396276622e+02 
       2.257310435923e-04       9.709080297651e+02 
       2.437387742372e-04       1.045352453375e+03 
       2.631830745176e-04       1.125468127721e+03 
       2.841785470091e-04       1.211678185928e+03 
       3.068489367268e-04       1.304435256065e+03 
       3.313278604643e-04       1.404223062922e+03 
       3.577595943165e-04       1.511558029577e+03 
       3.862999240274e-04       1.626990852555e+03 
       4.171170631739e-04       1.751108045602e+03 
       4.503926445983e-04       1.884533404754e+03 
       4.863227909323e-04       2.027929406956e+03 
       5.251192705226e-04       2.181998483912e+03 
       5.670107455699e-04       2.347484146066e+03 
       6.122441198393e-04       2.525171925194e+03 
       6.610859938837e-04       2.715890054976e+03 
       7.138242363583e-04       2.920509779317e+03 
       7.707696806873e-04       3.139945208045e+03 
       8.322579570814e-04       3.375152477009e+03 
       8.986514707061e-04       3.627128020449e+03 
       9.703415376577e-04       3.896905669493e+03 
       1.047750691338e-03       4.185552452588e+03 
       1.131335172818e-03       4.494162775532e+03 
       1.221587619877e-03       4.823851150537e+03 
       1.319039970550e-03       5.175743278629e+03 
       1.424266598317e-03       5.551020298562e+03 
       1.537887697396e-03       5.950789185257e+03 
       1.660572938097e-03       6.376124149798e+03 
       1.793045413791e-03       6.828075236220e+03 
       1.936085902737e-03       7.307627050521e+03 
       2.090537469909e-03       7.815673958289e+03 
       2.257310435923e-03       8.352992921887e+03 
       2.437387742372e-03       8.920214304761e+03 
       2.631830745176e-03       9.517787164476e+03 
       2.841785470091e-03       1.014594130356e+04 
       3.068489367268e-03       1.080465136034e+04 
       3.313278604643e-03       1.149358238883e+04 
       3.577595943165e-03       1.221204585977e+04 
       3.862999240274e-03       1.295893665263e+04 
       4.171170631739e-03       1.373267336908e+04 
       4.503926445983e-03       1.453113497665e+04 
       4.863227909323e-03       1.535157112022e+04 
       5.251192705226e-03       1.619066150744e+04 
       5.670107455699e-03       1.704433875235e+04 
       6.122441198393e-03       1.790758116840e+04 
       6.610859938837e-03       1.877462058285e+04 
       7.138242363583e-03       1.963874758001e+04 
       7.707696806873e-03       2.049217355972e+04 
       8.322579570814e-03       2.132608697084e+04 
       8.986514707061e-03       2.213056861026e+04 
       9.703415376577e-03       2.289447286758e+04 
       1.047750691338e-02       2.360549467309e+04 
       1.131335172818e-02       2.425024156627e+04 
       1.221587619877e-02       2.481424600059e+04 
       1.319039970550e-02       2.528219832455e+04 
       1.424266598317e-02       2.563814885718e+04 
       1.537887697392e-02       2.586607340290e+04 
       1.660572938023e-02       2.595026754485e+04 
       1.793045412706e-02       2.587635134765e+04 
       1.936085890181e-02       2.563219180653e+04 
       2.090537352463e-02       2.520935517751e+04 
       2.257309535333e-02       2.460444586885e+04 
       2.437382002918e-02       2.382088175617e+04 
       2.631799944462e-02       2.287043554798e+04 
       2.841644545389e-02       2.177448107011e+04 
       3.067933355377e-02       2.056554841035e+04 
       3.311368470740e-02       1.928729235973e+04 
       3.571840443502e-02       1.799399228728e+04 
       3.847720348444e-02       1.674681361658e+04 
       4.135335538431e-02       1.560455770233e+04 
       4.429361667738e-02       1.461033331125e+04 
       4.724366439141e-02       1.378050799424e+04 
       5.016480835311e-02       1.310499818288e+04 
       5.303989620246e-02       1.255711846392e+04 
       5.586870669566e-02       1.210417190783e+04 
       5.866042680613e-02       1.171458107398e+04 
       6.142798932958e-02       1.136039358415e+04 
       6.418496440164e-02       1.101846984896e+04 
       6.694418833788e-02       1.067058679454e+04 
       6.971731106057e-02       1.030349415012e+04 
       7.251476155766e-02       9.908917520935e+03 
       7.534587671527e-02       9.483634719328e+03 
       7.821907666265e-02       9.029397800544e+03 
       8.114203772912e-02       8.552209247130e+03 
       8.412184535029e-02       8.061789329703e+03 
       8.716512279304e-02       7.570656960905e+03 
       9.027813695930e-02       7.092380198524e+03 
       9.346688431697e-02       6.640411245055e+03 
       9.673716028275e-02       6.226595559785e+03 
       1.000946150830e-01       5.859818667944e+03 
       1.035447986537e-01       5.545156029715e+03 
       1.070931966762e-01       5.283022927454e+03 
       1.107452594425e-01       5.069305693634e+03 
       1.145064249153e-01       4.895128324816e+03 
       1.183821370918e-01       4.747720828265e+03 
       1.223778605862e-01       4.611589357741e+03 
       1.264990921987e-01       4.470462184772e+03 
       1.307513701367e-01       4.310115311014e+03 
       1.351402814784e-01       4.121233417310e+03 
       1.396714684203e-01       3.901911439554e+03 
       1.443506338194e-01       3.658508158009e+03 
       1.491835465229e-01       3.404346429676e+03 
       1.541760469708e-01       3.156523968689e+03 
       1.593340535561e-01       2.931807709134e+03 
       1.646635702297e-01       2.742222243099e+03 
       1.701706958456e-01       2.592099823501e+03 
       1.758616357459e-01       2.477083782305e+03 
       1.817427160982e-01       2.385022700103e+03 
       1.878204015065e-01       2.300204871683e+03 
       1.941013164283e-01       2.205594601170e+03 
       2.005922709503e-01       2.090659219744e+03 
       2.073002914972e-01       1.956301520464e+03 
       2.142326570816e-01       1.814036363199e+03 
       2.213969417533e-01       1.679122955542e+03 
       2.288010639706e-01       1.563684533358e+03 
       2.364533437147e-01       1.472524575133e+03 
       2.443625682930e-01       1.401361022360e+03 
       2.525380679504e-01       1.338253045510e+03 
       2.609898026346e-01       1.270740570381e+03 
       2.697284615565e-01       1.193225478898e+03 
       2.787655775689e-01       1.109179579512e+03 
       2.881136588829e-01       1.028611834189e+03 
       2.977863412677e-01       9.603241633048e+02 
       3.077985646929e-01       9.048684807592e+02 
       3.181667794071e-01       8.559913021778e+02 
       3.289091877812e-01       8.060331666399e+02 
       3.400460299658e-01       7.522383036379e+02 
       3.515999236474e-01       6.987707709722e+02 
       3.635962711085e-01       6.509121335296e+02 
       3.760637506334e-01       6.099724473001e+02 
       3.890349143879e-01       5.719844061117e+02 
       4.025469216825e-01       5.336361378534e+02 
       4.166424456376e-01       4.954876452118e+02 
       4.313708035863e-01       4.603253946657e+02 
       4.467893782977e-01       4.286356564450e+02 
       4.629654199663e-01       3.986335743897e+02 
       4.799783501994e-01       3.691045367835e+02 
       4.979227319373e-01       3.411043210054e+02 
       5.169121270864e-01       3.153505262847e+02 
       5.370841404489e-01       2.907046969206e+02 
       5.586070464571e-01       2.669767047431e+02 
       5.816885094930e-01       2.446832716286e+02 
       6.065870144995e-01       2.234439144571e+02 
       6.336266468475e-01       2.030889438888e+02 
       6.632156059511e-01       1.837600232187e+02 
       6.958678639262e-01       1.652393064702e+02 
       7.322247985589e-01       1.475834803352e+02 
       7.730680195113e-01       1.307249512409e+02 
       8.193049553677e-01       1.147258972471e+02 
       8.718988016039e-01       9.966101270549e+01 
       9.317218031081e-01       8.568017242384e+01 
       9.993660908989e-01       7.296137142198e+01 
       1.075037110174e+00       6.164675175356e+01 
       1.158653485707e+00       5.179409519467e+01 
       1.250099157308e+00       4.335963955883e+01 
       1.349432401273e+00       3.621302048398e+01 
       1.456947457397e+00       3.019584392239e+01 
       1.573135111331e+00       2.514616759460e+01 
       1.698621895592e+00       2.091742397705e+01 
       1.834127512934e+00       1.738148996543e+01 
       1.980444934528e+00       1.442824366980e+01 
       2.138435191726e+00       1.196485856278e+01 
       2.309029199186e+00       9.912355185252e+00 
       2.493232377687e+00       8.204047114827e+00 
       2.692130395285e+00       6.783705759882e+00 
       2.906895534573e+00       5.604119684283e+00 
       3.138793597714e+00       4.625428941992e+00 
       3.389191366484e+00       3.814140170582e+00 
       3.659564657905e+00       3.142322916196e+00 
       3.951507022538e+00       2.586493158347e+00 
       4.266739136701e+00       2.127063076546e+00 
       4.607118943941e+00       1.747619745941e+00 
       4.974652605557e+00       1.434547911929e+00 
       5.371506324689e+00       1.176455555693e+00 
       5.800019113685e+00       9.638604942881e-01 
       6.262716579983e+00       7.888923405697e-01 
       6.762325811764e+00       6.450123125686e-01 
       7.301791451110e+00       5.267999083153e-01 
       7.884293049406e+00       4.297598672938e-01 
       8.513263807261e+00       3.501714949948e-01 
       9.192410809424e+00       2.849503218136e-01 
       9.925736873929e+00       2.315541195715e-01 
       1.071756414427e+01       1.878803140133e-01 
       1.157255956364e+01       1.521927823675e-01 
       1.249576238137e+01       1.230631089624e-01 
       1.349261385375e+01       9.931176103341e-02 
       1.456898931416e+01       7.996992580659e-02 
       1.573123280165e+01       6.423896296669e-02 
       1.698619445202e+01       5.146327047806e-02 
       1.834127087176e+01       4.110394602194e-02 
       1.980444873285e+01       3.271811124183e-02 
       2.138435184532e+01       2.594337065888e-02 
       2.309029198506e+01       2.048298726646e-02 
       2.493232377636e+01       1.609256157277e-02 
       2.692130395282e+01       1.257336192961e-02 
       2.906895534573e+01       9.761724498950e-03 
       3.138793597714e+01       7.524162568179e-03 
       3.389191366484e+01       5.751636051020e-03 
       3.659564657905e+01       4.355039695489e-03 
       3.951507022538e+01       3.261440429744e-03 
       4.266739136701e+01       2.411455636637e-03 
       4.607118943941e+01       1.756694500829e-03 
       4.974652605557e+01       1.257561137626e-03 
       5.371506324689e+01       8.817595974300e-04 
       5.800019113685e+01       6.030500342230e-04 
       6.262716579983e+01       4.001508968417e-04 
       6.762325811764e+01       2.557480606420e-04 
       7.301791451110e+01       1.558103176860e-04 
       7.884293049406e+01       8.912216951565e-05 
       8.513263807261e+01       4.667926505880e-05 
       9.192410809424e+01       2.141561201373e-05 
       9.925736873929e+01       7.826422754453e-06 
       1.071756414427e+02       1.720701437106e-06 
       1.157255956364e+02       2.018808346531e-08 
       1.249576238137e+02       5.491163612898e-07 
       1.349261385375e+02       1.871602723578e-06 
       1.456898931416e+02       3.130105512024e-06 
       1.573123280165e+02       3.906755651930e-06 
