# Matter power spectrum P(k) at redshift z=0
# for k=1.04775e-05 to 157.312 h/Mpc,
# number of wavenumbers equal to 257
#    1:k (h/Mpc)              2:P (Mpc/h)^3        
       1.047750691338e-05       5.020963906807e+01 
       1.131335172818e-05       5.407048937190e+01 
       1.221587619877e-05       5.822820724036e+01 
       1.319039970550e-05       6.270562047515e+01 
       1.424266598317e-05       6.752731476102e+01 
       1.537887697396e-05       7.271975715406e+01 
       1.660572938097e-05       7.831147101223e+01 
       1.793045413791e-05       8.433312302119e+01 
       1.936085902737e-05       9.081780130650e+01 
       2.090537469909e-05       9.780107395463e+01 
       2.257310435923e-05       1.053212938597e+02 
       2.437387742372e-05       1.134197268470e+02 
       2.631830745176e-05       1.221408285801e+02 
       2.841785470091e-05       1.315324590475e+02 
       3.068489367268e-05       1.416461664295e+02 
       3.313278604643e-05       1.525374476907e+02 
       3.577595943165e-05       1.642660519498e+02 
       3.862999240274e-05       1.768963429035e+02 
       4.171170631739e-05       1.904975997758e+02 
       4.503926445983e-05       2.051444243233e+02 
       4.863227909323e-05       2.209171412020e+02 
       5.251192705226e-05       2.379022266304e+02 
       5.670107455699e-05       2.561927841742e+02 
       6.122441198393e-05       2.758890478477e+02 
       6.610859938837e-05       2.970989214389e+02 
       7.138242363583e-05       3.199385559931e+02 
       7.707696806873e-05       3.445329727002e+02 
       8.322579570814e-05       3.710167323881e+02 
       8.986514707061e-05       3.995346444171e+02 
       9.703415376577e-05       4.302425389352e+02 
       1.047750691338e-04       4.633080773458e+02 
       1.131335172818e-04       4.989116271368e+02 
       1.221587619877e-04       5.372471938769e+02 
       1.319039970550e-04       5.785234116785e+02 
       1.424266598317e-04       6.229645933375e+02 
       1.537887697396e-04       6.708118487373e+02 
       1.660572938097e-04       7.223242657649e+02 
       1.793045413791e-04       7.777801570741e+02 
       1.936085902737e-04       8.374783640704e+02 
       2.090537469909e-04       9.017396294261e+02 
       2.257310435923e-04       9.709080297650e+02 
       2.437387742372e-04       1.045352453364e+03 
       2.631830745176e-04       1.125468127720e+03 
       2.841785470091e-04       1.211678185927e+03 
       3.068489367268e-04       1.304435256065e+03 
       3.313278604643e-04       1.404223062925e+03 
       3.577595943165e-04       1.511558029576e+03 
       3.862999240274e-04       1.626990852553e+03 
       4.171170631739e-04       1.751108045596e+03 
       4.503926445983e-04       1.884533404745e+03 
       4.863227909323e-04       2.027929406957e+03 
       5.251192705226e-04       2.181998483905e+03 
       5.670107455699e-04       2.347484146065e+03 
       6.122441198393e-04       2.525171925180e+03 
       6.610859938837e-04       2.715890054956e+03 
       7.138242363583e-04       2.920509779295e+03 
       7.707696806873e-04       3.139945208005e+03 
       8.322579570814e-04       3.375152476948e+03 
       8.986514707061e-04       3.627128020366e+03 
       9.703415376577e-04       3.896905669418e+03 
       1.047750691338e-03       4.185552452425e+03 
       1.131335172818e-03       4.494162775285e+03 
       1.221587619877e-03       4.823851150184e+03 
       1.319039970550e-03       5.175743278126e+03 
       1.424266598317e-03       5.551020297823e+03 
       1.537887697396e-03       5.950789184161e+03 
       1.660572938097e-03       6.376124148186e+03 
       1.793045413791e-03       6.828075233864e+03 
       1.936085902737e-03       7.307627047101e+03 
       2.090537469909e-03       7.815673953357e+03 
       2.257310435923e-03       8.352992914797e+03 
       2.437387742372e-03       8.920214294444e+03 
       2.631830745176e-03       9.517787150056e+03 
       2.841785470091e-03       1.014594128311e+04 
       3.068489367268e-03       1.080465133148e+04 
       3.313278604643e-03       1.149358234824e+04 
       3.577595943165e-03       1.221204580293e+04 
       3.862999240274e-03       1.295893657330e+04 
       4.171170631739e-03       1.373267325889e+04 
       4.503926445983e-03       1.453113482395e+04 
       4.863227909323e-03       1.535157093617e+04 
       5.251192705226e-03       1.619066150630e+04 
       5.670107455699e-03       1.704433740041e+04 
       6.122441198393e-03       1.790758126408e+04 
       6.610859938837e-03       1.877462001653e+04 
       7.138242363583e-03       1.963874323609e+04 
       7.707696806873e-03       2.049217185458e+04 
       8.322579570814e-03       2.132608702191e+04 
       8.986514707061e-03       2.213056695965e+04 
       9.703415376577e-03       2.289446823769e+04 
       1.047750691338e-02       2.360549040033e+04 
       1.131335172818e-02       2.425023342315e+04 
       1.221587619877e-02       2.481423844414e+04 
       1.319039970550e-02       2.528218912203e+04 
       1.424266598317e-02       2.563813626540e+04 
       1.537887697392e-02       2.586605670784e+04 
       1.660572938023e-02       2.595024680050e+04 
       1.793045412706e-02       2.587632348904e+04 
       1.936085890181e-02       2.563215668201e+04 
       2.090537352463e-02       2.520931017093e+04 
       2.257309535333e-02       2.460438838321e+04 
       2.437382002918e-02       2.382080982046e+04 
       2.631799944462e-02       2.287034659528e+04 
       2.841644545389e-02       2.177436705532e+04 
       3.067933355377e-02       2.056541516819e+04 
       3.311368470740e-02       1.928712368234e+04 
       3.571840443502e-02       1.799379915031e+04 
       3.847720348444e-02       1.674658168994e+04 
       4.135335538431e-02       1.560429883234e+04 
       4.429361667738e-02       1.461004836439e+04 
       4.724366439141e-02       1.378016476726e+04 
       5.016480835311e-02       1.310460906771e+04 
       5.303989620246e-02       1.255669888270e+04 
       5.586870669566e-02       1.210371635466e+04 
       5.866042680613e-02       1.171409129791e+04 
       6.142798932958e-02       1.135987189813e+04 
       6.418496440164e-02       1.101791870190e+04 
       6.694418833788e-02       1.067000948976e+04 
       6.971731106057e-02       1.030289177908e+04 
       7.251476155766e-02       9.908294259350e+03 
       7.534587671527e-02       9.482994564807e+03 
       7.821907666265e-02       9.028739863950e+03 
       8.114203772912e-02       8.551537386290e+03 
       8.412184535029e-02       8.061106844804e+03 
       8.716512279304e-02       7.569968796207e+03 
       9.027813695930e-02       7.091671241752e+03 
       9.346688431697e-02       6.639690699163e+03 
       9.673716028275e-02       6.225863710562e+03 
       1.000946150830e-01       5.859071940925e+03 
       1.035447986537e-01       5.544414931085e+03 
       1.070931966762e-01       5.282238889541e+03 
       1.107452594425e-01       5.068499036821e+03 
       1.145064249153e-01       4.894297855777e+03 
       1.183821370918e-01       4.746856201887e+03 
       1.223778605862e-01       4.610691396354e+03 
       1.264990921987e-01       4.469568451925e+03 
       1.307513701367e-01       4.309198242043e+03 
       1.351402814784e-01       4.120305285439e+03 
       1.396714684203e-01       3.900986904758e+03 
       1.443506338194e-01       3.657573268652e+03 
       1.491835465229e-01       3.403415090549e+03 
       1.541760469708e-01       3.155587107370e+03 
       1.593340535561e-01       2.930876663025e+03 
       1.646635702297e-01       2.741288313184e+03 
       1.701706958456e-01       2.591157546811e+03 
       1.758616357459e-01       2.476125306754e+03 
       1.817427160982e-01       2.384048268104e+03 
       1.878204015065e-01       2.299215298881e+03 
       1.941013164283e-01       2.204594857884e+03 
       2.005922709503e-01       2.089651452675e+03 
       2.073002914972e-01       1.955295622626e+03 
       2.142326570816e-01       1.813039517073e+03 
       2.213969417533e-01       1.678141755605e+03 
       2.288010639706e-01       1.562706254888e+03 
       2.364533437147e-01       1.471543378742e+03 
       2.443625682930e-01       1.400374085014e+03 
       2.525380679504e-01       1.337259057773e+03 
       2.609898026346e-01       1.269745104902e+03 
       2.697284615565e-01       1.192231376635e+03 
       2.787655775689e-01       1.108198277546e+03 
       2.881136588829e-01       1.027637663032e+03 
       2.977863412677e-01       9.593572921683e+02 
       3.077985646929e-01       9.039004289400e+02 
       3.181667794071e-01       8.550247430530e+02 
       3.289091877812e-01       8.050718798200e+02 
       3.400460299658e-01       7.512863829880e+02 
       3.515999236474e-01       6.978281241251e+02 
       3.635962711085e-01       6.499802366524e+02 
       3.760637506334e-01       6.090451291567e+02 
       3.890349143879e-01       5.710632244696e+02 
       4.025469216825e-01       5.327225976985e+02 
       4.166424456376e-01       4.945858222571e+02 
       4.313708035863e-01       4.594339943889e+02 
       4.467893782977e-01       4.277536038752e+02 
       4.629654199663e-01       3.977612394639e+02 
       4.799783501994e-01       3.682440414405e+02 
       4.979227319373e-01       3.402554674831e+02 
       5.169121270864e-01       3.145129810556e+02 
       5.370841404489e-01       2.898793355291e+02 
       5.586070464571e-01       2.661651777672e+02 
       5.816885094930e-01       2.438852381504e+02 
       6.065870144995e-01       2.226601242222e+02 
       6.336266468475e-01       2.023207018310e+02 
       6.632156059511e-01       1.830076658347e+02 
       6.958678639262e-01       1.645037083186e+02 
       7.322247985589e-01       1.468661576606e+02 
       7.730680195113e-01       1.300271038411e+02 
       8.193049553677e-01       1.140491998677e+02 
       8.718988016039e-01       9.900673648429e+01 
       9.317218031081e-01       8.504999330323e+01 
       9.993660908989e-01       7.235571971448e+01 
       1.075037110174e+00       6.106651379688e+01 
       1.158653485707e+00       5.124004258488e+01 
       1.250099157308e+00       4.283088488830e+01 
       1.349432401273e+00       3.570960729122e+01 
       1.456947457397e+00       2.971660484832e+01 
       1.573135111331e+00       2.469156202048e+01 
       1.698621895592e+00       2.048612455383e+01 
       1.834127512934e+00       1.697276967623e+01 
       1.980444934528e+00       1.404142569534e+01 
       2.138435191726e+00       1.159910947081e+01 
       2.309029199186e+00       9.566886108255e+00 
       2.493232377687e+00       7.878169813923e+00 
       2.692130395285e+00       6.476690466047e+00 
       2.906895534573e+00       5.315164565847e+00 
       3.138793597714e+00       4.353790536741e+00 
       3.389191366484e+00       3.559141959444e+00 
       3.659564657905e+00       2.903272043308e+00 
       3.951507022538e+00       2.362702647507e+00 
       4.266739136701e+00       1.917900794228e+00 
       4.607118943941e+00       1.552477509863e+00 
       4.974652605557e+00       1.252809292928e+00 
       5.371506324689e+00       1.007531271737e+00 
       5.800019113685e+00       8.071875890210e-01 
       6.262716579983e+00       6.439330368946e-01 
       6.762325811764e+00       5.112514429526e-01 
       7.301791451110e+00       4.037282689632e-01 
       7.884293049406e+00       3.168856413427e-01 
       8.513263807261e+00       2.470095305040e-01 
       9.192410809424e+00       1.910382402573e-01 
       9.925736873929e+00       1.464279858601e-01 
       1.071756414427e+01       1.110898359498e-01 
       1.157255956364e+01       8.328340676915e-02 
       1.249576238137e+01       6.158513025411e-02 
       1.349261385375e+01       4.481500601805e-02 
       1.456898931416e+01       3.200282751770e-02 
       1.573123280165e+01       2.234557362280e-02 
       1.698619445202e+01       1.518745324593e-02 
       1.834127087176e+01       9.987735247129e-03 
       1.980444873285e+01       6.302606824330e-03 
       2.138435184532e+01       3.771134971927e-03 
       2.309029198506e+01       2.101025663350e-03 
       2.493232377636e+01       1.056943489972e-03 
       2.692130395282e+01       4.529966280537e-04 
       2.906895534573e+01       1.441533055721e-04 
       3.138793597714e+01       2.055578429271e-05 
       3.389191366484e+01       1.658244544819e-06 
       3.659564657905e+01       3.146298545184e-05 
       3.951507022538e+01       7.380331537024e-05 
       4.266739136701e+01       1.081400151312e-04 
       4.607118943941e+01       1.255854981039e-04 
       4.974652605557e+01       1.251611304800e-04 
       5.371506324689e+01       1.106909476502e-04 
       5.800019113685e+01       8.801401208166e-05 
       6.262716579983e+01       6.299981624904e-05 
       6.762325811764e+01       4.020611723726e-05 
       7.301791451110e+01       2.246483992832e-05 
       7.884293049406e+01       1.049919011787e-05 
       8.513263807261e+01       3.727839534348e-06 
       9.192410809424e+01       7.574935719532e-07 
       9.925736873929e+01       7.238493841692e-09 
       1.071756414427e+02       1.831281883289e-07 
       1.157255956364e+02       4.852516721217e-07 
       1.249576238137e+02       5.890185986350e-07 
       1.349261385375e+02       4.862709731853e-07 
       1.456898931416e+02       2.977506190396e-07 
       1.573123280165e+02       1.329963414868e-07 
