# Matter power spectrum P(k) at redshift z=0
# for k=1.04775e-05 to 66.1767 h/Mpc,
# number of wavenumbers equal to 130
#    1:k (h/Mpc)              2:P (Mpc/h)^3        
       1.047750691046e-05       5.020964811308e+01 
       1.319039970183e-05       6.270562594796e+01 
       1.660572937635e-05       7.831147247912e+01 
       2.090537469327e-05       9.780108069310e+01 
       2.631830744443e-05       1.221408203809e+02 
       3.313278603720e-05       1.525374501932e+02 
       4.171170630578e-05       1.904975994009e+02 
       5.251192703764e-05       2.379022224248e+02 
       6.610859936996e-05       2.970989227883e+02 
       8.322579568497e-05       3.710167318946e+02 
       1.047750691046e-04       4.633080766742e+02 
       1.319039970183e-04       5.785234129341e+02 
       1.660572937635e-04       7.223242666092e+02 
       2.090537469327e-04       9.017396271824e+02 
       2.631830744443e-04       1.125468123750e+03 
       3.313278603720e-04       1.404223053681e+03 
       4.171170630578e-04       1.751108028790e+03 
       5.251192703764e-04       2.181998448133e+03 
       6.610859936996e-04       2.715889983593e+03 
       8.322579568497e-04       3.375152337115e+03 
       1.047750691046e-03       4.185552174335e+03 
       1.319039970183e-03       5.175742739390e+03 
       1.660572937635e-03       6.376123051746e+03 
       2.090537469327e-03       7.815671914967e+03 
       2.631830744443e-03       9.517783069062e+03 
       3.313278603720e-03       1.149357460328e+04 
       4.171170630578e-03       1.373266000129e+04 
       5.251192703764e-03       1.619063614452e+04 
       6.610859936996e-03       1.877460420670e+04 
       8.322579568497e-03       2.132607231154e+04 
       1.047750691046e-02       2.360548643282e+04 
       1.319039970183e-02       2.528218844758e+04 
       1.660572937633e-02       2.595026397214e+04 
       2.090537453514e-02       2.520934580879e+04 
       2.631818545635e-02       2.287035011773e+04 
       3.311571692125e-02       1.928629129235e+04 
       4.113809243311e-02       1.568427436423e+04 
       4.792590854610e-02       1.361061207480e+04 
       5.284436902701e-02       1.259127958708e+04 
       5.689644391095e-02       1.195554852705e+04 
       6.051252627066e-02       1.147545148640e+04 
       6.388413457411e-02       1.105588612374e+04 
       6.711249296401e-02       1.064897577304e+04 
       7.025823437965e-02       1.022928198039e+04 
       7.336115587705e-02       9.784504712904e+03 
       7.644928796912e-02       9.311645702323e+03 
       7.954353299775e-02       8.814482059861e+03 
       8.266024078725e-02       8.302134933947e+03 
       8.581273398637e-02       7.786933147097e+03 
       8.901225918437e-02       7.283179694462e+03 
       9.226860540985e-02       6.805139437936e+03 
       9.559052048996e-02       6.365612838743e+03 
       9.898599946599e-02       5.974389591410e+03 
       1.024624891378e-01       5.637344382416e+03 
       1.060270359164e-01       5.355799670696e+03 
       1.096863943056e-01       5.126268426721e+03 
       1.134471073830e-01       4.940494312833e+03 
       1.173155669539e-01       4.786180886011e+03 
       1.212980586983e-01       4.647944318490e+03 
       1.254007961065e-01       4.509145957929e+03 
       1.296299459934e-01       4.354539176278e+03 
       1.339916477160e-01       4.173212844623e+03 
       1.384920277736e-01       3.961168769610e+03 
       1.431372111762e-01       3.722691176170e+03 
       1.479333307714e-01       3.469560913287e+03 
       1.528865355934e-01       3.218338637032e+03 
       1.580029992204e-01       2.986285588548e+03 
       1.632889290723e-01       2.786966524913e+03 
       1.687505775527e-01       2.626832823893e+03 
       1.743942559171e-01       2.503770094246e+03 
       1.802263517371e-01       2.407330632086e+03 
       1.862533508214e-01       2.322244208309e+03 
       1.924818644494e-01       2.231549991812e+03 
       1.989186627765e-01       2.122183243627e+03 
       2.055707152847e-01       1.992026269333e+03 
       2.124452391818e-01       1.850323612023e+03 
       2.195497567139e-01       1.712171020537e+03 
       2.268921624510e-01       1.590981447266e+03 
       2.344808017550e-01       1.493659855115e+03 
       2.423245618548e-01       1.418299235376e+03 
       2.504329772620e-01       1.354464674463e+03 
       2.588163516754e-01       1.288931042239e+03 
       2.674858990930e-01       1.213932760204e+03 
       2.764539076010e-01       1.130688508470e+03 
       2.857339303080e-01       1.048096168658e+03 
       2.953410092148e-01       9.761812643591e+02 
       3.052919395542e-01       9.178048524047e+02 
       3.156055844677e-01       8.678948850538e+02 
       3.263032530092e-01       8.185236194955e+02 
       3.374091587054e-01       7.651440363193e+02 
       3.489509817175e-01       7.106700149530e+02 
       3.609605657343e-01       6.607838875133e+02 
       3.734747921333e-01       6.180811095513e+02 
       3.865366902904e-01       5.793084036552e+02 
       4.001968667448e-01       5.403876614905e+02 
       4.145153713076e-01       5.011489718165e+02 
       4.295641718077e-01       4.644956593207e+02 
       4.454304922144e-01       4.314057221918e+02 
       4.622214006969e-01       4.001111229331e+02 
       4.800702491654e-01       3.690869952394e+02 
       4.991459272112e-01       3.394742154950e+02 
       5.196665217302e-01       3.119831191894e+02 
       5.419201087032e-01       2.852453371299e+02 
       5.662975451962e-01       2.593289726142e+02 
       5.933463737275e-01       2.345460286206e+02 
       6.238638458458e-01       2.102284936645e+02 
       6.590669257916e-01       1.864308051920e+02 
       7.009246080454e-01       1.627227215632e+02 
       7.528593308799e-01       1.388167792723e+02 
       8.213469537518e-01       1.141864143510e+02 
       9.196980813302e-01       8.835763645351e+01 
       1.075112183810e+00       6.172442348810e+01 
       1.322697471132e+00       3.804135443265e+01 
       1.662328205042e+00       2.209674192512e+01 
       2.092692408506e+00       1.266815884004e+01 
       2.634543445090e+00       7.202504441139e+00 
       3.316693691389e+00       4.064446124822e+00 
       4.175469971226e+00       2.278065068264e+00 
       5.256605252960e+00       1.268899120456e+00 
       6.617673932723e+00       7.027760618500e-01 
       8.331157880872e+00       3.871954768474e-01 
       1.048830636590e+01       2.122879729153e-01 
       1.320399541071e+01       1.158634764606e-01 
       1.662284535976e+01       6.296451629510e-02 
       2.092692243973e+01       3.407569236118e-02 
       2.634543445002e+01       1.836625813085e-02 
       3.316693691389e+01       9.858212111053e-03 
       4.175469971226e+01       5.268135013967e-03 
       5.256605252960e+01       2.801466743185e-03 
       6.617673932723e+01       1.481084579579e-03 
