# Matter power spectrum P(k) at redshift z=99
# for k=1.04775e-05 to 66.1767 h/Mpc,
# number of wavenumbers equal to 130
#    1:k (h/Mpc)              2:P (Mpc/h)^3        
       1.047750691046e-05       7.261927683083e-03 
       1.319039970183e-05       9.069258204636e-03 
       1.660572937635e-05       1.132639107071e-02 
       2.090537469327e-05       1.414527123831e-02 
       2.631830744443e-05       1.766569584598e-02 
       3.313278603720e-05       2.206225516615e-02 
       4.171170630578e-05       2.755297767113e-02 
       5.251192703764e-05       3.441013524007e-02 
       6.610859936996e-05       4.297372174089e-02 
       8.322579568497e-05       5.366826854575e-02 
       1.047750691046e-04       6.702379874816e-02 
       1.319039970183e-04       8.370193443834e-02 
       1.660572937635e-04       1.045283355701e-01 
       2.090537469327e-04       1.305329134498e-01 
       2.631830744443e-04       1.629994507092e-01 
       3.313278603720e-04       2.035264005206e-01 
       4.171170630578e-04       2.541004744986e-01 
       5.251192703764e-04       3.171839529462e-01 
       6.610859936996e-04       3.958147257589e-01 
       8.322579568497e-04       4.937136007741e-01 
       1.047750691046e-03       6.153841637395e-01 
       1.319039970183e-03       7.661720593923e-01 
       1.660572937635e-03       9.522588017171e-01 
       2.090537469327e-03       1.180312991573e+00 
       2.631830744443e-03       1.456802684012e+00 
       3.313278603720e-03       1.786503852001e+00 
       4.171170630578e-03       2.169896175517e+00 
       5.251192703764e-03       2.599430617059e+00 
       6.610859936996e-03       3.055668682623e+00 
       8.322579568497e-03       3.505724847009e+00 
       1.047750691046e-02       3.905490469354e+00 
       1.319039970183e-02       4.200914968053e+00 
       1.660572937633e-02       4.325058632768e+00 
       2.090537453514e-02       4.210198718832e+00 
       2.631818545635e-02       3.825145924918e+00 
       3.311571692125e-02       3.229049435501e+00 
       4.113809243311e-02       2.627719927986e+00 
       4.792590854610e-02       2.280776109771e+00 
       5.284436902701e-02       2.110067238971e+00 
       5.689644391095e-02       2.003515773971e+00 
       6.051252627066e-02       1.923030980614e+00 
       6.388413457411e-02       1.852704938309e+00 
       6.711249296401e-02       1.784537748035e+00 
       7.025823437965e-02       1.714247676519e+00 
       7.336115587705e-02       1.639786468985e+00 
       7.644928796912e-02       1.560630444291e+00 
       7.954353299775e-02       1.477428209766e+00 
       8.266024078725e-02       1.391666902934e+00 
       8.581273398637e-02       1.305425391557e+00 
       8.901225918437e-02       1.221098020662e+00 
       9.226860540985e-02       1.141046254807e+00 
       9.559052048996e-02       1.067419653387e+00 
       9.898599946599e-02       1.001856395044e+00 
       1.024624891378e-01       9.453460853621e-01 
       1.060270359164e-01       8.981144113371e-01 
       1.096863943056e-01       8.595806772517e-01 
       1.134471073830e-01       8.283681278668e-01 
       1.173155669539e-01       8.024289718892e-01 
       1.212980586983e-01       7.791905469757e-01 
       1.254007961065e-01       7.558770834083e-01 
       1.296299459934e-01       7.299418516529e-01 
       1.339916477160e-01       6.995527074504e-01 
       1.384920277736e-01       6.640371820312e-01 
       1.431372111762e-01       6.241054035244e-01 
       1.479333307714e-01       5.817230516295e-01 
       1.528865355934e-01       5.396483744657e-01 
       1.580029992204e-01       5.007724044364e-01 
       1.632889290723e-01       4.673573803589e-01 
       1.687505775527e-01       4.404916304153e-01 
       1.743942559171e-01       4.198234691401e-01 
       1.802263517371e-01       4.036163650911e-01 
       1.862533508214e-01       3.893158370294e-01 
       1.924818644494e-01       3.740906551641e-01 
       1.989186627765e-01       3.557576681849e-01 
       2.055707152847e-01       3.339559886795e-01 
       2.124452391818e-01       3.102226994029e-01 
       2.195497567139e-01       2.870791487359e-01 
       2.268921624510e-01       2.667645997912e-01 
       2.344808017550e-01       2.504405760130e-01 
       2.423245618548e-01       2.377898586746e-01 
       2.504329772620e-01       2.270677839776e-01 
       2.588163516754e-01       2.160735764422e-01 
       2.674858990930e-01       2.035020737294e-01 
       2.764539076010e-01       1.895547072040e-01 
       2.857339303080e-01       1.757143549533e-01 
       2.953410092148e-01       1.636572468114e-01 
       3.052919395542e-01       1.538641503528e-01 
       3.156055844677e-01       1.454894105808e-01 
       3.263032530092e-01       1.372083792809e-01 
       3.374091587054e-01       1.282607208070e-01 
       3.489509817175e-01       1.191299791920e-01 
       3.609605657343e-01       1.107668202378e-01 
       3.734747921333e-01       1.036050572774e-01 
       3.865366902904e-01       9.710134469634e-02 
       4.001968667448e-01       9.057605808534e-02 
       4.145153713076e-01       8.399804168215e-02 
       4.295641718077e-01       7.785301242764e-02 
       4.454304922144e-01       7.230403713688e-02 
       4.622214006969e-01       6.705636854048e-02 
       4.800702491654e-01       6.185490325645e-02 
       4.991459272112e-01       5.689030939313e-02 
       5.196665217302e-01       5.228063776599e-02 
       5.419201087032e-01       4.779772773741e-02 
       5.662975451962e-01       4.345281094850e-02 
       5.933463737275e-01       3.929790063834e-02 
       6.238638458458e-01       3.522079704187e-02 
       6.590669257916e-01       3.123128416197e-02 
       7.009246080454e-01       2.725680745386e-02 
       7.528593308799e-01       2.324909497273e-02 
       8.213469537518e-01       1.912037798976e-02 
       9.196980813302e-01       1.479102373240e-02 
       1.075112183810e+00       1.032750872497e-02 
       1.322697471132e+00       6.359288631946e-03 
       1.662328205042e+00       3.688741241017e-03 
       2.092692408506e+00       2.110553455913e-03 
       2.634543445090e+00       1.196515693462e-03 
       3.316693691389e+00       6.724398765847e-04 
       4.175469971226e+00       3.746772830487e-04 
       5.256605252960e+00       2.069535551195e-04 
       6.617673932723e+00       1.132547582741e-04 
       8.331157880872e+00       6.134044116440e-05 
       1.048830636590e+01       3.282338435565e-05 
       1.320399541071e+01       1.730526720771e-05 
       1.662284535976e+01       8.952667491700e-06 
       2.092692243973e+01       4.517795403675e-06 
       2.634543445002e+01       2.204444116104e-06 
       3.316693691389e+01       1.026783223329e-06 
       4.175469971226e+01       4.478513954414e-07 
       5.256605252960e+01       1.775203608848e-07 
       6.617673932723e+01       6.083246347862e-08 
