# Matter power spectrum P(k) at redshift z=0
# for k=1.04775e-05 to 157.312 h/Mpc,
# number of wavenumbers equal to 257
#    1:k (h/Mpc)              2:P (Mpc/h)^3        
       1.047750691338e-05       5.020963906804e+01 
       1.131335172818e-05       5.407048937148e+01 
       1.221587619877e-05       5.822820724029e+01 
       1.319039970550e-05       6.270562047248e+01 
       1.424266598317e-05       6.752731476098e+01 
       1.537887697396e-05       7.271975715395e+01 
       1.660572938097e-05       7.831147101246e+01 
       1.793045413791e-05       8.433312302135e+01 
       1.936085902737e-05       9.081780130646e+01 
       2.090537469909e-05       9.780107449260e+01 
       2.257310435923e-05       1.053212938596e+02 
       2.437387742372e-05       1.134197268469e+02 
       2.631830745176e-05       1.221408285624e+02 
       2.841785470091e-05       1.315324590474e+02 
       3.068489367268e-05       1.416461671358e+02 
       3.313278604643e-05       1.525374478896e+02 
       3.577595943165e-05       1.642660517235e+02 
       3.862999240274e-05       1.768963429378e+02 
       4.171170631739e-05       1.904975997820e+02 
       4.503926445983e-05       2.051444243234e+02 
       4.863227909323e-05       2.209171412049e+02 
       5.251192705226e-05       2.379022266146e+02 
       5.670107455699e-05       2.561927841239e+02 
       6.122441198393e-05       2.758890479569e+02 
       6.610859938837e-05       2.970989213980e+02 
       7.138242363583e-05       3.199385559930e+02 
       7.707696806873e-05       3.445329727006e+02 
       8.322579570814e-05       3.710167324011e+02 
       8.986514707061e-05       3.995346444121e+02 
       9.703415376577e-05       4.302425389349e+02 
       1.047750691338e-04       4.633080773457e+02 
       1.131335172818e-04       4.989116271548e+02 
       1.221587619877e-04       5.372471938794e+02 
       1.319039970550e-04       5.785234116883e+02 
       1.424266598317e-04       6.229645933131e+02 
       1.537887697396e-04       6.708118487511e+02 
       1.660572938097e-04       7.223242657764e+02 
       1.793045413791e-04       7.777801571271e+02 
       1.936085902737e-04       8.374783638365e+02 
       2.090537469909e-04       9.017396276756e+02 
       2.257310435923e-04       9.709080297651e+02 
       2.437387742372e-04       1.045352453376e+03 
       2.631830745176e-04       1.125468127721e+03 
       2.841785470091e-04       1.211678185928e+03 
       3.068489367268e-04       1.304435256065e+03 
       3.313278604643e-04       1.404223062921e+03 
       3.577595943165e-04       1.511558029577e+03 
       3.862999240274e-04       1.626990852555e+03 
       4.171170631739e-04       1.751108045602e+03 
       4.503926445983e-04       1.884533404755e+03 
       4.863227909323e-04       2.027929406956e+03 
       5.251192705226e-04       2.181998483913e+03 
       5.670107455699e-04       2.347484146066e+03 
       6.122441198393e-04       2.525171925196e+03 
       6.610859938837e-04       2.715890054979e+03 
       7.138242363583e-04       2.920509779320e+03 
       7.707696806873e-04       3.139945208051e+03 
       8.322579570814e-04       3.375152477018e+03 
       8.986514707061e-04       3.627128020462e+03 
       9.703415376577e-04       3.896905669505e+03 
       1.047750691338e-03       4.185552452613e+03 
       1.131335172818e-03       4.494162775569e+03 
       1.221587619877e-03       4.823851150590e+03 
       1.319039970550e-03       5.175743278705e+03 
       1.424266598317e-03       5.551020298674e+03 
       1.537887697396e-03       5.950789185422e+03 
       1.660572938097e-03       6.376124150042e+03 
       1.793045413791e-03       6.828075236576e+03 
       1.936085902737e-03       7.307627051038e+03 
       2.090537469909e-03       7.815673959035e+03 
       2.257310435923e-03       8.352992922959e+03 
       2.437387742372e-03       8.920214306322e+03 
       2.631830745176e-03       9.517787166656e+03 
       2.841785470091e-03       1.014594130666e+04 
       3.068489367268e-03       1.080465136470e+04 
       3.313278604643e-03       1.149358239496e+04 
       3.577595943165e-03       1.221204586836e+04 
       3.862999240274e-03       1.295893666462e+04 
       4.171170631739e-03       1.373267338573e+04 
       4.503926445983e-03       1.453113499972e+04 
       4.863227909323e-03       1.535157115211e+04 
       5.251192705226e-03       1.619066155138e+04 
       5.670107455699e-03       1.704433881235e+04 
       6.122441198393e-03       1.790758125007e+04 
       6.610859938837e-03       1.877461996957e+04 
       7.138242363583e-03       1.963874650917e+04 
       7.707696806873e-03       2.049217385586e+04 
       8.322579570814e-03       2.132608015933e+04 
       8.986514707061e-03       2.213056718994e+04 
       9.703415376577e-03       2.289447300147e+04 
       1.047750691338e-02       2.360549528174e+04 
       1.131335172818e-02       2.425024126099e+04 
       1.221587619877e-02       2.481424707861e+04 
       1.319039970550e-02       2.528219971438e+04 
       1.424266598317e-02       2.563815131701e+04 
       1.537887697392e-02       2.586607621523e+04 
       1.660572938023e-02       2.595027124090e+04 
       1.793045412706e-02       2.587635579084e+04 
       1.936085890181e-02       2.563219799730e+04 
       2.090537352463e-02       2.520936234365e+04 
       2.257309535333e-02       2.460445461112e+04 
       2.437382002918e-02       2.382088564528e+04 
       2.631799944462e-02       2.287044898316e+04 
       2.841644545389e-02       2.177448842100e+04 
       3.067933355377e-02       2.056556844696e+04 
       3.311368470740e-02       1.928731559180e+04 
       3.571840443502e-02       1.799402109393e+04 
       3.847720348444e-02       1.674684777656e+04 
       4.135335538431e-02       1.560459804180e+04 
       4.429361667738e-02       1.461037894843e+04 
       4.724366439141e-02       1.378055975889e+04 
       5.016480835311e-02       1.310505554124e+04 
       5.303989620246e-02       1.255718151944e+04 
       5.586870669566e-02       1.210424000544e+04 
       5.866042680613e-02       1.171465460431e+04 
       6.142798932958e-02       1.136047184819e+04 
       6.418496440164e-02       1.101855262617e+04 
       6.694418833788e-02       1.067067374509e+04 
       6.971731106057e-02       1.030358425936e+04 
       7.251476155766e-02       9.909010913617e+03 
       7.534587671527e-02       9.483729795262e+03 
       7.821907666265e-02       9.029497306901e+03 
       8.114203772912e-02       8.552309574458e+03 
       8.412184535029e-02       8.061883427822e+03 
       8.716512279304e-02       7.570758852326e+03 
       9.027813695930e-02       7.092487124090e+03 
       9.346688431697e-02       6.640518486833e+03 
       9.673716028275e-02       6.226704866905e+03 
       1.000946150830e-01       5.859929938562e+03 
       1.035447986537e-01       5.545271691092e+03 
       1.070931966762e-01       5.283139794122e+03 
       1.107452594425e-01       5.069426531189e+03 
       1.145064249153e-01       4.895250990749e+03 
       1.183821370918e-01       4.747841801370e+03 
       1.223778605862e-01       4.611721824508e+03 
       1.264990921987e-01       4.470607623548e+03 
       1.307513701367e-01       4.310251691546e+03 
       1.351402814784e-01       4.121361675839e+03 
       1.396714684203e-01       3.902051540420e+03 
       1.443506338194e-01       3.658647350830e+03 
       1.491835465229e-01       3.404486739347e+03 
       1.541760469708e-01       3.156661001422e+03 
       1.593340535561e-01       2.931945928097e+03 
       1.646635702297e-01       2.742361179887e+03 
       1.701706958456e-01       2.592239874965e+03 
       1.758616357459e-01       2.477221700537e+03 
       1.817427160982e-01       2.385167481644e+03 
       1.878204015065e-01       2.300351524443e+03 
       1.941013164283e-01       2.205742822582e+03 
       2.005922709503e-01       2.090803416508e+03 
       2.073002914972e-01       1.956450602705e+03 
       2.142326570816e-01       1.814182932474e+03 
       2.213969417533e-01       1.679268727759e+03 
       2.288010639706e-01       1.563829142297e+03 
       2.364533437147e-01       1.472669312859e+03 
       2.443625682930e-01       1.401506555506e+03 
       2.525380679504e-01       1.338399218621e+03 
       2.609898026346e-01       1.270887571725e+03 
       2.697284615565e-01       1.193368035157e+03 
       2.787655775689e-01       1.109327517650e+03 
       2.881136588829e-01       1.028754976592e+03 
       2.977863412677e-01       9.604661761192e+02 
       3.077985646929e-01       9.050087172542e+02 
       3.181667794071e-01       8.561306966457e+02 
       3.289091877812e-01       8.061734132314e+02 
       3.400460299658e-01       7.523790450701e+02 
       3.515999236474e-01       6.989084693048e+02 
       3.635962711085e-01       6.510486597500e+02 
       3.760637506334e-01       6.101074175140e+02 
       3.890349143879e-01       5.721174948361e+02 
       4.025469216825e-01       5.337687481823e+02 
       4.166424456376e-01       4.956184977118e+02 
       4.313708035863e-01       4.604555374983e+02 
       4.467893782977e-01       4.287628047404e+02 
       4.629654199663e-01       3.987590468365e+02 
       4.799783501994e-01       3.692284358805e+02 
       4.979227319373e-01       3.412271654687e+02 
       5.169121270864e-01       3.154709936226e+02 
       5.370841404489e-01       2.908239021047e+02 
       5.586070464571e-01       2.670935672248e+02 
       5.816885094930e-01       2.447975808798e+02 
       6.065870144995e-01       2.235560494988e+02 
       6.336266468475e-01       2.031986861967e+02 
       6.632156059511e-01       1.838671330353e+02 
       6.958678639262e-01       1.653436816063e+02 
       7.322247985589e-01       1.476849461718e+02 
       7.730680195113e-01       1.308236457622e+02 
       8.193049553677e-01       1.148212481778e+02 
       8.718988016039e-01       9.975315898745e+01 
       9.317218031081e-01       8.576837480043e+01 
       9.993660908989e-01       7.304581070837e+01 
       1.075037110174e+00       6.172741495397e+01 
       1.158653485707e+00       5.187083517456e+01 
       1.250099157308e+00       4.343252039368e+01 
       1.349432401273e+00       3.628206678196e+01 
       1.456947457397e+00       3.026112112204e+01 
       1.573135111331e+00       2.520796976584e+01 
       1.698621895592e+00       2.097573203551e+01 
       1.834127512934e+00       1.743648404340e+01 
       1.980444934528e+00       1.448006960009e+01 
       2.138435191726e+00       1.201368966627e+01 
       2.309029199186e+00       9.958247457039e+00 
       2.493232377687e+00       8.247185104892e+00 
       2.692130395285e+00       6.824249780794e+00 
       2.906895534573e+00       5.642157915070e+00 
       3.138793597714e+00       4.661038471038e+00 
       3.389191366484e+00       3.847496383307e+00 
       3.659564657905e+00       3.173555667960e+00 
       3.951507022538e+00       2.615701608341e+00 
       4.266739136701e+00       2.154395356137e+00 
       4.607118943941e+00       1.773160231099e+00 
       4.974652605557e+00       1.458395342754e+00 
       5.371506324689e+00       1.198706453638e+00 
       5.800019113685e+00       9.846052077247e-01 
       6.262716579983e+00       8.082271990141e-01 
       6.762325811764e+00       6.630213635005e-01 
       7.301791451110e+00       5.435676502186e-01 
       7.884293049406e+00       4.453608129318e-01 
       8.513263807261e+00       3.646746705623e-01 
       9.192410809424e+00       2.984265915063e-01 
       9.925736873929e+00       2.440663858356e-01 
       1.071756414427e+01       1.994848775448e-01 
       1.157255956364e+01       1.629453687131e-01 
       1.249576238137e+01       1.330231698494e-01 
       1.349261385375e+01       1.085237025716e-01 
       1.456898931416e+01       8.848180483205e-02 
       1.573123280165e+01       7.209387658766e-02 
       1.698619445202e+01       5.870006631339e-02 
       1.834127087176e+01       4.776099036214e-02 
       1.980444873285e+01       3.883148294012e-02 
       2.138435184532e+01       3.154620192656e-02 
       2.309029198506e+01       2.560595525475e-02 
       2.493232377636e+01       2.076551046292e-02 
       2.692130395282e+01       1.682339051161e-02 
       2.906895534573e+01       1.361504874743e-02 
       3.138793597714e+01       1.100561602389e-02 
       3.389191366484e+01       8.884759482987e-03 
       3.659564657905e+01       7.162218345535e-03 
       3.951507022538e+01       5.764324436200e-03 
       4.266739136701e+01       4.630969799510e-03 
       4.607118943941e+01       3.712863760139e-03 
       4.974652605557e+01       2.969902458868e-03 
       5.371506324689e+01       2.369546929455e-03 
       5.800019113685e+01       1.884916284946e-03 
       6.262716579983e+01       1.494379577791e-03 
       6.762325811764e+01       1.180228226157e-03 
       7.301791451110e+01       9.280125658132e-04 
       7.884293049406e+01       7.260358143324e-04 
       8.513263807261e+01       5.647332670304e-04 
       9.192410809424e+01       4.363433179038e-04 
       9.925736873929e+01       3.345483498915e-04 
       1.071756414427e+02       2.542236252422e-04 
       1.157255956364e+02       1.911928526968e-04 
       1.249576238137e+02       1.420599281128e-04 
       1.349261385375e+02       1.040729794438e-04 
       1.456898931416e+02       7.498399822634e-05 
       1.573123280165e+02       5.296918231731e-05 
