# Matter power spectrum P(k) at redshift z=99
# for k=1.04775e-05 to 66.1767 h/Mpc,
# number of wavenumbers equal to 130
#    1:k (h/Mpc)              2:P (Mpc/h)^3        
       1.047750691046e-05       7.261927796324e-03 
       1.319039970183e-05       9.069258346588e-03 
       1.660572937635e-05       1.132639210839e-02 
       2.090537469327e-05       1.414527145850e-02 
       2.631830744443e-05       1.766569597156e-02 
       3.313278603720e-05       2.206225550908e-02 
       4.171170630578e-05       2.755297809781e-02 
       5.251192703764e-05       3.441013577907e-02 
       6.610859936996e-05       4.297372240973e-02 
       8.322579568497e-05       5.366826937868e-02 
       1.047750691046e-04       6.702379979031e-02 
       1.319039970183e-04       8.370193586532e-02 
       1.660572937635e-04       1.045283371887e-01 
       2.090537469327e-04       1.305329154608e-01 
       2.631830744443e-04       1.629994531873e-01 
       3.313278603720e-04       2.035264036045e-01 
       4.171170630578e-04       2.541004782851e-01 
       5.251192703764e-04       3.171839575474e-01 
       6.610859936996e-04       3.958147312298e-01 
       8.322579568497e-04       4.937136070791e-01 
       1.047750691046e-03       6.153841705471e-01 
       1.319039970183e-03       7.661720657301e-01 
       1.660572937635e-03       9.522588051179e-01 
       2.090537469327e-03       1.180312983384e+00 
       2.631830744443e-03       1.456802643048e+00 
       3.313278603720e-03       1.786503726544e+00 
       4.171170630578e-03       2.169895887148e+00 
       5.251192703764e-03       2.599429741102e+00 
       6.610859936996e-03       3.055666368021e+00 
       8.322579568497e-03       3.505719709416e+00 
       1.047750691046e-02       3.905476334349e+00 
       1.319039970183e-02       4.200883163382e+00 
       1.660572937633e-02       4.324986974233e+00 
       2.090537453514e-02       4.210045532000e+00 
       2.631818545635e-02       3.824831814597e+00 
       3.311571692125e-02       3.228465410789e+00 
       4.113809243311e-02       2.626734519477e+00 
       4.792590854610e-02       2.279416861517e+00 
       5.284436902701e-02       2.108423444076e+00 
       5.689644391095e-02       2.001646259605e+00 
       6.051252627066e-02       1.920959897708e+00 
       6.388413457411e-02       1.850452115880e+00 
       6.711249296401e-02       1.782112052667e+00 
       7.025823437965e-02       1.711668867495e+00 
       7.336115587705e-02       1.637051697305e+00 
       7.644928796912e-02       1.557770993095e+00 
       7.954353299775e-02       1.474443582557e+00 
       8.266024078725e-02       1.388562455908e+00 
       8.581273398637e-02       1.302215775620e+00 
       8.901225918437e-02       1.217767607907e+00 
       9.226860540985e-02       1.137602414623e+00 
       9.559052048996e-02       1.063858607891e+00 
       9.898599946599e-02       9.981762385051e-01 
       1.024624891378e-01       9.415287315155e-01 
       1.060270359164e-01       8.941517905209e-01 
       1.096863943056e-01       8.554569924152e-01 
       1.134471073830e-01       8.240787007937e-01 
       1.173155669539e-01       7.979615555977e-01 
       1.212980586983e-01       7.745466591590e-01 
       1.254007961065e-01       7.510640823677e-01 
       1.296299459934e-01       7.249720492434e-01 
       1.339916477160e-01       6.944472546193e-01 
       1.384920277736e-01       6.588220237680e-01 
       1.431372111762e-01       6.188024387653e-01 
       1.479333307714e-01       5.763499108566e-01 
       1.528865355934e-01       5.342153384113e-01 
       1.580029992204e-01       4.952642947264e-01 
       1.632889290723e-01       4.617593030203e-01 
       1.687505775527e-01       4.347761430640e-01 
       1.743942559171e-01       4.139611496083e-01 
       1.802263517371e-01       3.975880358368e-01 
       1.862533508214e-01       3.831188261487e-01 
       1.924818644494e-01       3.677428139926e-01 
       1.989186627765e-01       3.493004832049e-01 
       2.055707152847e-01       3.274281231565e-01 
       2.124452391818e-01       3.036587855536e-01 
       2.195497567139e-01       2.804873753240e-01 
       2.268921624510e-01       2.601257237900e-01 
       2.344808017550e-01       2.437206871080e-01 
       2.423245618548e-01       2.309564538734e-01 
       2.504329772620e-01       2.201093997287e-01 
       2.588163516754e-01       2.090091218777e-01 
       2.674858990930e-01       1.963751133599e-01 
       2.764539076010e-01       1.824039072596e-01 
       2.857339303080e-01       1.685567530495e-01 
       2.953410092148e-01       1.564733989995e-01 
       3.052919395542e-01       1.466223170358e-01 
       3.156055844677e-01       1.381738665993e-01 
       3.263032530092e-01       1.298367641823e-01 
       3.374091587054e-01       1.208696773398e-01 
       3.489509817175e-01       1.117439236869e-01 
       3.609605657343e-01       1.033806594926e-01 
       3.734747921333e-01       9.619846698841e-02 
       3.865366902904e-01       8.967117135528e-02 
       4.001968667448e-01       8.314338801369e-02 
       4.145153713076e-01       7.658561990350e-02 
       4.295641718077e-01       7.046222318648e-02 
       4.454304922144e-01       6.492794949889e-02 
       4.622214006969e-01       5.970137895173e-02 
       4.800702491654e-01       5.454110419123e-02 
       4.991459272112e-01       4.962542385105e-02 
       5.196665217302e-01       4.506598781630e-02 
       5.419201087032e-01       4.064869823717e-02 
       5.662975451962e-01       3.638419344185e-02 
       5.933463737275e-01       3.232059885745e-02 
       6.238638458458e-01       2.835688692481e-02 
       6.590669257916e-01       2.450323452054e-02 
       7.009246080454e-01       2.069886760654e-02 
       7.528593308799e-01       1.690897365533e-02 
       8.213469537518e-01       1.307462104568e-02 
       9.196980813302e-01       9.170678186651e-03 
       1.075112183810e+00       5.360859722593e-03 
       1.322697471132e+00       2.338988641668e-03 
       1.662328205042e+00       7.323943503127e-04 
       2.092692408506e+00       1.342521118403e-04 
       2.634543445090e+00       2.839313530786e-06 
       3.316693691389e+00       1.046489061037e-05 
       4.175469971226e+00       1.772062958420e-05 
       5.256605252960e+00       7.943263319358e-06 
       6.617673932723e+00       7.791204225385e-07 
       8.331157880872e+00       6.216662018006e-08 
       1.048830636590e+01       1.145107055973e-07 
       1.320399541071e+01       2.543899797708e-09 
       1.662284535976e+01       2.006695985103e-09 
       2.092692243973e+01       9.593590775397e-12 
       2.634543445002e+01       8.375164596363e-12 
       3.316693691389e+01       6.919562520903e-13 
       4.175469971226e+01       1.702863288696e-15 
       5.256605252960e+01       4.415963917507e-15 
       6.617673932723e+01       4.081967230164e-16 
