# Matter power spectrum P(k) at redshift z=0
# for k=1.04775e-05 to 157.312 h/Mpc,
# number of wavenumbers equal to 257
#    1:k (h/Mpc)              2:P (Mpc/h)^3        
       1.047750691338e-05       5.020963906804e+01 
       1.131335172818e-05       5.407048937148e+01 
       1.221587619877e-05       5.822820724029e+01 
       1.319039970550e-05       6.270562047250e+01 
       1.424266598317e-05       6.752731476098e+01 
       1.537887697396e-05       7.271975715395e+01 
       1.660572938097e-05       7.831147101246e+01 
       1.793045413791e-05       8.433312302135e+01 
       1.936085902737e-05       9.081780130646e+01 
       2.090537469909e-05       9.780107449526e+01 
       2.257310435923e-05       1.053212938596e+02 
       2.437387742372e-05       1.134197268469e+02 
       2.631830745176e-05       1.221408285625e+02 
       2.841785470091e-05       1.315324590474e+02 
       3.068489367268e-05       1.416461671356e+02 
       3.313278604643e-05       1.525374478904e+02 
       3.577595943165e-05       1.642660517210e+02 
       3.862999240274e-05       1.768963429375e+02 
       4.171170631739e-05       1.904975997819e+02 
       4.503926445983e-05       2.051444243234e+02 
       4.863227909323e-05       2.209171412049e+02 
       5.251192705226e-05       2.379022266148e+02 
       5.670107455699e-05       2.561927841241e+02 
       6.122441198393e-05       2.758890479682e+02 
       6.610859938837e-05       2.970989213983e+02 
       7.138242363583e-05       3.199385559930e+02 
       7.707696806873e-05       3.445329727006e+02 
       8.322579570814e-05       3.710167324010e+02 
       8.986514707061e-05       3.995346444121e+02 
       9.703415376577e-05       4.302425389349e+02 
       1.047750691338e-04       4.633080773458e+02 
       1.131335172818e-04       4.989116271614e+02 
       1.221587619877e-04       5.372471938794e+02 
       1.319039970550e-04       5.785234116880e+02 
       1.424266598317e-04       6.229645933133e+02 
       1.537887697396e-04       6.708118487510e+02 
       1.660572938097e-04       7.223242657763e+02 
       1.793045413791e-04       7.777801571266e+02 
       1.936085902737e-04       8.374783638365e+02 
       2.090537469909e-04       9.017396276723e+02 
       2.257310435923e-04       9.709080297651e+02 
       2.437387742372e-04       1.045352453376e+03 
       2.631830745176e-04       1.125468127721e+03 
       2.841785470091e-04       1.211678185928e+03 
       3.068489367268e-04       1.304435256065e+03 
       3.313278604643e-04       1.404223062921e+03 
       3.577595943165e-04       1.511558029577e+03 
       3.862999240274e-04       1.626990852555e+03 
       4.171170631739e-04       1.751108045602e+03 
       4.503926445983e-04       1.884533404755e+03 
       4.863227909323e-04       2.027929406956e+03 
       5.251192705226e-04       2.181998483913e+03 
       5.670107455699e-04       2.347484146066e+03 
       6.122441198393e-04       2.525171925196e+03 
       6.610859938837e-04       2.715890054979e+03 
       7.138242363583e-04       2.920509779320e+03 
       7.707696806873e-04       3.139945208051e+03 
       8.322579570814e-04       3.375152477018e+03 
       8.986514707061e-04       3.627128020461e+03 
       9.703415376577e-04       3.896905669504e+03 
       1.047750691338e-03       4.185552452611e+03 
       1.131335172818e-03       4.494162775567e+03 
       1.221587619877e-03       4.823851150587e+03 
       1.319039970550e-03       5.175743278700e+03 
       1.424266598317e-03       5.551020298667e+03 
       1.537887697396e-03       5.950789185412e+03 
       1.660572938097e-03       6.376124150027e+03 
       1.793045413791e-03       6.828075236554e+03 
       1.936085902737e-03       7.307627051006e+03 
       2.090537469909e-03       7.815673958989e+03 
       2.257310435923e-03       8.352992922892e+03 
       2.437387742372e-03       8.920214306224e+03 
       2.631830745176e-03       9.517787166519e+03 
       2.841785470091e-03       1.014594130646e+04 
       3.068489367268e-03       1.080465136443e+04 
       3.313278604643e-03       1.149358239457e+04 
       3.577595943165e-03       1.221204586782e+04 
       3.862999240274e-03       1.295893666386e+04 
       4.171170631739e-03       1.373267338469e+04 
       4.503926445983e-03       1.453113499827e+04 
       4.863227909323e-03       1.535157115026e+04 
       5.251192705226e-03       1.619066154957e+04 
       5.670107455699e-03       1.704433880861e+04 
       6.122441198393e-03       1.790758124436e+04 
       6.610859938837e-03       1.877461996229e+04 
       7.138242363583e-03       1.963874649789e+04 
       7.707696806873e-03       2.049217384305e+04 
       8.322579570814e-03       2.132608013525e+04 
       8.986514707061e-03       2.213056717102e+04 
       9.703415376577e-03       2.289447296406e+04 
       1.047750691338e-02       2.360549524195e+04 
       1.131335172818e-02       2.425024122004e+04 
       1.221587619877e-02       2.481424700432e+04 
       1.319039970550e-02       2.528219958824e+04 
       1.424266598317e-02       2.563815118381e+04 
       1.537887697392e-02       2.586607598900e+04 
       1.660572938023e-02       2.595027071196e+04 
       1.793045412706e-02       2.587635540039e+04 
       1.936085890181e-02       2.563219650156e+04 
       2.090537352463e-02       2.520936103547e+04 
       2.257309535333e-02       2.460445399616e+04 
       2.437382002918e-02       2.382088534421e+04 
       2.631799944462e-02       2.287044810679e+04 
       2.841644545389e-02       2.177448689323e+04 
       3.067933355377e-02       2.056556729962e+04 
       3.311368470740e-02       1.928731435630e+04 
       3.571840443502e-02       1.799401947666e+04 
       3.847720348444e-02       1.674684572777e+04 
       4.135335538431e-02       1.560459540607e+04 
       4.429361667738e-02       1.461037612062e+04 
       4.724366439141e-02       1.378055636764e+04 
       5.016480835311e-02       1.310505204024e+04 
       5.303989620246e-02       1.255717762060e+04 
       5.586870669566e-02       1.210423986727e+04 
       5.866042680613e-02       1.171464983459e+04 
       6.142798932958e-02       1.136046717619e+04 
       6.418496440164e-02       1.101854747500e+04 
       6.694418833788e-02       1.067066931207e+04 
       6.971731106057e-02       1.030357182607e+04 
       7.251476155766e-02       9.909005111904e+03 
       7.534587671527e-02       9.483723792570e+03 
       7.821907666265e-02       9.029490047307e+03 
       8.114203772912e-02       8.552303764444e+03 
       8.412184535029e-02       8.061877618046e+03 
       8.716512279304e-02       7.570751175420e+03 
       9.027813695930e-02       7.092478985545e+03 
       9.346688431697e-02       6.640512152977e+03 
       9.673716028275e-02       6.226698303641e+03 
       1.000946150830e-01       5.859923451436e+03 
       1.035447986537e-01       5.545260637013e+03 
       1.070931966762e-01       5.283132795854e+03 
       1.107452594425e-01       5.069418643987e+03 
       1.145064249153e-01       4.895244897134e+03 
       1.183821370918e-01       4.747833483019e+03 
       1.223778605862e-01       4.611693689727e+03 
       1.264990921987e-01       4.470597482778e+03 
       1.307513701367e-01       4.310243037334e+03 
       1.351402814784e-01       4.121363183216e+03 
       1.396714684203e-01       3.902051094556e+03 
       1.443506338194e-01       3.658638746735e+03 
       1.491835465229e-01       3.404477932115e+03 
       1.541760469708e-01       3.156651751671e+03 
       1.593340535561e-01       2.931937416068e+03 
       1.646635702297e-01       2.742352362100e+03 
       1.701706958456e-01       2.592231574653e+03 
       1.758616357459e-01       2.477217568402e+03 
       1.817427160982e-01       2.385158660196e+03 
       1.878204015065e-01       2.300342487359e+03 
       1.941013164283e-01       2.205733625465e+03 
       2.005922709503e-01       2.090793856305e+03 
       2.073002914972e-01       1.956441136562e+03 
       2.142326570816e-01       1.814169033128e+03 
       2.213969417533e-01       1.679260439177e+03 
       2.288010639706e-01       1.563820038944e+03 
       2.364533437147e-01       1.472660294687e+03 
       2.443625682930e-01       1.401497664962e+03 
       2.525380679504e-01       1.338390402037e+03 
       2.609898026346e-01       1.270879340061e+03 
       2.697284615565e-01       1.193361465295e+03 
       2.787655775689e-01       1.109316488482e+03 
       2.881136588829e-01       1.028745885283e+03 
       2.977863412677e-01       9.604576019943e+02 
       3.077985646929e-01       9.049994547166e+02 
       3.181667794071e-01       8.561223195143e+02 
       3.289091877812e-01       8.061649838443e+02 
       3.400460299658e-01       7.523680220381e+02 
       3.515999236474e-01       6.988997557258e+02 
       3.635962711085e-01       6.510397956701e+02 
       3.760637506334e-01       6.100993914209e+02 
       3.890349143879e-01       5.721103679106e+02 
       4.025469216825e-01       5.337607060284e+02 
       4.166424456376e-01       4.956106588868e+02 
       4.313708035863e-01       4.604467004766e+02 
       4.467893782977e-01       4.287552760634e+02 
       4.629654199663e-01       3.987521051338e+02 
       4.799783501994e-01       3.692214338750e+02 
       4.979227319373e-01       3.412194038538e+02 
       5.169121270864e-01       3.154638222076e+02 
       5.370841404489e-01       2.908167647666e+02 
       5.586070464571e-01       2.670864227212e+02 
       5.816885094930e-01       2.447909083054e+02 
       6.065870144995e-01       2.235494400744e+02 
       6.336266468475e-01       2.031921783390e+02 
       6.632156059511e-01       1.838608000688e+02 
       6.958678639262e-01       1.653376972581e+02 
       7.322247985589e-01       1.476792188294e+02 
       7.730680195113e-01       1.308179179298e+02 
       8.193049553677e-01       1.148157861604e+02 
       8.718988016039e-01       9.974764714600e+01 
       9.317218031081e-01       8.576348534912e+01 
       9.993660908989e-01       7.304110540039e+01 
       1.075037110174e+00       6.172286173399e+01 
       1.158653485707e+00       5.186649300584e+01 
       1.250099157308e+00       4.342846460824e+01 
       1.349432401273e+00       3.627816970875e+01 
       1.456947457397e+00       3.025757061859e+01 
       1.573135111331e+00       2.520453270899e+01 
       1.698621895592e+00       2.097263253989e+01 
       1.834127512934e+00       1.743360228711e+01 
       1.980444934528e+00       1.447739827953e+01 
       2.138435191726e+00       1.201116656021e+01 
       2.309029199186e+00       9.955910907411e+00 
       2.493232377687e+00       8.245010693178e+00 
       2.692130395285e+00       6.822260375584e+00 
       2.906895534573e+00       5.640311765295e+00 
       3.138793597714e+00       4.659352149810e+00 
       3.389191366484e+00       3.845943962650e+00 
       3.659564657905e+00       3.172129469462e+00 
       3.951507022538e+00       2.614416283008e+00 
       4.266739136701e+00       2.153177120566e+00 
       4.607118943941e+00       1.772085833067e+00 
       4.974652605557e+00       1.457422568870e+00 
       5.371506324689e+00       1.197826563574e+00 
       5.800019113685e+00       9.838144663623e-01 
       6.262716579983e+00       8.075173996420e-01 
       6.762325811764e+00       6.623870515317e-01 
       7.301791451110e+00       5.430009812547e-01 
       7.884293049406e+00       4.448573650179e-01 
       8.513263807261e+00       3.642308355162e-01 
       9.192410809424e+00       2.980360298292e-01 
       9.925736873929e+00       2.437265321063e-01 
       1.071756414427e+01       1.991919443458e-01 
       1.157255956364e+01       1.626987641236e-01 
       1.249576238137e+01       1.328094041016e-01 
       1.349261385375e+01       1.083456663405e-01 
       1.456898931416e+01       8.833417391463e-02 
       1.573123280165e+01       7.197431358269e-02 
       1.698619445202e+01       5.860582975311e-02 
       1.834127087176e+01       4.768978360156e-02 
       1.980444873285e+01       3.878053818205e-02 
       2.138435184532e+01       3.151334881222e-02 
       2.309029198506e+01       2.558908501064e-02 
       2.493232377636e+01       2.076288883808e-02 
       2.692130395282e+01       1.683280466866e-02 
       2.906895534573e+01       1.363515898842e-02 
       3.138793597714e+01       1.103488025033e-02 
       3.389191366484e+01       8.921465963230e-03 
       3.659564657905e+01       7.205260955105e-03 
       3.951507022538e+01       5.812606821127e-03 
       4.266739136701e+01       4.683257776917e-03 
       4.607118943941e+01       3.768213935458e-03 
       4.974652605557e+01       3.027509098362e-03 
       5.371506324689e+01       2.428414645563e-03 
       5.800019113685e+01       1.944403455505e-03 
       6.262716579983e+01       1.553691695094e-03 
       6.762325811764e+01       1.238754948825e-03 
       7.301791451110e+01       9.853689732474e-04 
       7.884293049406e+01       7.816507906269e-04 
       8.513263807261e+01       6.181751843669e-04 
       9.192410809424e+01       4.872699587380e-04 
       9.925736873929e+01       3.825947115394e-04 
       1.071756414427e+02       2.991412555562e-04 
       1.157255956364e+02       2.328125496203e-04 
       1.249576238137e+02       1.802120695774e-04 
       1.349261385375e+02       1.386503511373e-04 
       1.456898931416e+02       1.059702311643e-04 
       1.573123280165e+02       8.036448178584e-05 
