# Matter power spectrum P(k) at redshift z=99
# for k=1.04775e-05 to 66.1767 h/Mpc,
# number of wavenumbers equal to 130
#    1:k (h/Mpc)              2:P (Mpc/h)^3        
       1.047750691046e-05       7.261927704379e-03 
       1.319039970183e-05       9.069258231359e-03 
       1.660572937635e-05       1.132639110389e-02 
       2.090537469327e-05       1.414527127967e-02 
       2.631830744443e-05       1.766569589780e-02 
       3.313278603720e-05       2.206225523064e-02 
       4.171170630578e-05       2.755297775129e-02 
       5.251192703764e-05       3.441013534174e-02 
       6.610859936996e-05       4.297372186665e-02 
       8.322579568497e-05       5.366826870207e-02 
       1.047750691046e-04       6.702379894396e-02 
       1.319039970183e-04       8.370193468267e-02 
       1.660572937635e-04       1.045283358744e-01 
       2.090537469327e-04       1.305329138279e-01 
       2.631830744443e-04       1.629994511750e-01 
       3.313278603720e-04       2.035264011007e-01 
       4.171170630578e-04       2.541004752112e-01 
       5.251192703764e-04       3.171839538132e-01 
       6.610859936996e-04       3.958147267904e-01 
       8.322579568497e-04       4.937136019668e-01 
       1.047750691046e-03       6.153841650321e-01 
       1.319039970183e-03       7.661720605671e-01 
       1.660572937635e-03       9.522588024233e-01 
       2.090537469327e-03       1.180312990354e+00 
       2.631830744443e-03       1.456802677537e+00 
       3.313278603720e-03       1.786503832352e+00 
       4.171170630578e-03       2.169896139597e+00 
       5.251192703764e-03       2.599430485538e+00 
       6.610859936996e-03       3.055668314500e+00 
       8.322579568497e-03       3.505724720834e+00 
       1.047750691046e-02       3.905488932507e+00 
       1.319039970183e-02       4.200910590315e+00 
       1.660572937633e-02       4.325051788440e+00 
       2.090537453514e-02       4.210180012603e+00 
       2.631818545635e-02       3.825107507182e+00 
       3.311571692125e-02       3.228979937670e+00 
       4.113809243311e-02       2.627595086855e+00 
       4.792590854610e-02       2.280623245555e+00 
       5.284436902701e-02       2.109883746192e+00 
       5.689644391095e-02       2.003311368823e+00 
       6.051252627066e-02       1.922811526701e+00 
       6.388413457411e-02       1.852467449043e+00 
       6.711249296401e-02       1.784279148711e+00 
       7.025823437965e-02       1.713981153456e+00 
       7.336115587705e-02       1.639508019409e+00 
       7.644928796912e-02       1.560344085912e+00 
       7.954353299775e-02       1.477133312159e+00 
       8.266024078725e-02       1.391364294784e+00 
       8.581273398637e-02       1.305125444280e+00 
       8.901225918437e-02       1.220782796366e+00 
       9.226860540985e-02       1.140732555978e+00 
       9.559052048996e-02       1.067095001867e+00 
       9.898599946599e-02       1.001529801300e+00 
       1.024624891378e-01       9.450106547457e-01 
       1.060270359164e-01       8.977715990768e-01 
       1.096863943056e-01       8.592226554119e-01 
       1.134471073830e-01       8.280036205402e-01 
       1.173155669539e-01       8.020531832869e-01 
       1.212980586983e-01       7.788037388663e-01 
       1.254007961065e-01       7.554813928681e-01 
       1.296299459934e-01       7.295382898884e-01 
       1.339916477160e-01       6.991415850741e-01 
       1.384920277736e-01       6.636234296384e-01 
       1.431372111762e-01       6.236879194390e-01 
       1.479333307714e-01       5.813071638588e-01 
       1.528865355934e-01       5.392352471212e-01 
       1.580029992204e-01       5.003592398119e-01 
       1.632889290723e-01       4.669406840612e-01 
       1.687505775527e-01       4.400735346069e-01 
       1.743942559171e-01       4.193981495569e-01 
       1.802263517371e-01       4.031836815032e-01 
       1.862533508214e-01       3.888765363301e-01 
       1.924818644494e-01       3.736447449486e-01 
       1.989186627765e-01       3.553099476742e-01 
       2.055707152847e-01       3.335086397916e-01 
       2.124452391818e-01       3.097780154677e-01 
       2.195497567139e-01       2.866387094870e-01 
       2.268921624510e-01       2.663251196829e-01 
       2.344808017550e-01       2.500009848328e-01 
       2.423245618548e-01       2.373482890918e-01 
       2.504329772620e-01       2.266237574680e-01 
       2.588163516754e-01       2.156267179929e-01 
       2.674858990930e-01       2.030550937822e-01 
       2.764539076010e-01       1.891114837174e-01 
       2.857339303080e-01       1.752759216908e-01 
       2.953410092148e-01       1.632216270044e-01 
       3.052919395542e-01       1.534296386766e-01 
       3.156055844677e-01       1.450540233596e-01 
       3.263032530092e-01       1.367738086269e-01 
       3.374091587054e-01       1.278294624527e-01 
       3.489509817175e-01       1.187035712184e-01 
       3.609605657343e-01       1.103439453991e-01 
       3.734747921333e-01       1.031851287592e-01 
       3.865366902904e-01       9.668347660968e-02 
       4.001968667448e-01       9.016175462169e-02 
       4.145153713076e-01       8.358827545475e-02 
       4.295641718077e-01       7.744773243509e-02 
       4.454304922144e-01       7.190258203864e-02 
       4.622214006969e-01       6.665926502477e-02 
       4.800702491654e-01       6.146318135916e-02 
       4.991459272112e-01       5.650358648012e-02 
       5.196665217302e-01       5.189926052802e-02 
       5.419201087032e-01       4.742216183587e-02 
       5.662975451962e-01       4.308359114283e-02 
       5.933463737275e-01       3.893520596458e-02 
       6.238638458458e-01       3.486588910065e-02 
       6.590669257916e-01       3.088451976153e-02 
       7.009246080454e-01       2.691962243246e-02 
       7.528593308799e-01       2.292304767388e-02 
       8.213469537518e-01       1.880806595248e-02 
       9.196980813302e-01       1.449658885656e-02 
       1.075112183810e+00       1.005758421703e-02 
       1.322697471132e+00       6.121043079656e-03 
       1.662328205042e+00       3.483799680459e-03 
       2.092692408506e+00       1.936827777230e-03 
       2.634543445090e+00       1.051542884396e-03 
       3.316693691389e+00       5.536793928341e-04 
       4.175469971226e+00       2.796352973784e-04 
       5.256605252960e+00       1.331307995553e-04 
       6.617673932723e+00       5.811233797635e-05 
       8.331157880872e+00       2.219632422589e-05 
       1.048830636590e+01       6.798164193033e-06 
       1.320399541071e+01       1.360171174975e-06 
       1.662284535976e+01       7.420792671439e-08 
       2.092692243973e+01       3.299180301954e-08 
       2.634543445002e+01       9.719853425297e-08 
       3.316693691389e+01       6.112056724002e-08 
       4.175469971226e+01       1.351175578303e-08 
       5.256605252960e+01       2.218556087633e-10 
       6.617673932723e+01       4.472572223335e-10 
