# Matter power spectrum P(k) at redshift z=0
# for k=1.04775e-05 to 157.312 h/Mpc,
# number of wavenumbers equal to 257
#    1:k (h/Mpc)              2:P (Mpc/h)^3        
       1.047750691338e-05       5.020963906804e+01 
       1.131335172818e-05       5.407048937148e+01 
       1.221587619877e-05       5.822820724029e+01 
       1.319039970550e-05       6.270562047252e+01 
       1.424266598317e-05       6.752731476098e+01 
       1.537887697396e-05       7.271975715395e+01 
       1.660572938097e-05       7.831147101246e+01 
       1.793045413791e-05       8.433312302135e+01 
       1.936085902737e-05       9.081780130646e+01 
       2.090537469909e-05       9.780107449763e+01 
       2.257310435923e-05       1.053212938596e+02 
       2.437387742372e-05       1.134197268469e+02 
       2.631830745176e-05       1.221408285626e+02 
       2.841785470091e-05       1.315324590474e+02 
       3.068489367268e-05       1.416461671354e+02 
       3.313278604643e-05       1.525374478911e+02 
       3.577595943165e-05       1.642660517189e+02 
       3.862999240274e-05       1.768963429372e+02 
       4.171170631739e-05       1.904975997819e+02 
       4.503926445983e-05       2.051444243234e+02 
       4.863227909323e-05       2.209171412049e+02 
       5.251192705226e-05       2.379022266148e+02 
       5.670107455699e-05       2.561927841242e+02 
       6.122441198393e-05       2.758890479773e+02 
       6.610859938837e-05       2.970989213985e+02 
       7.138242363583e-05       3.199385559930e+02 
       7.707696806873e-05       3.445329727006e+02 
       8.322579570814e-05       3.710167324009e+02 
       8.986514707061e-05       3.995346444122e+02 
       9.703415376577e-05       4.302425389349e+02 
       1.047750691338e-04       4.633080773458e+02 
       1.131335172818e-04       4.989116271628e+02 
       1.221587619877e-04       5.372471938794e+02 
       1.319039970550e-04       5.785234116876e+02 
       1.424266598317e-04       6.229645933135e+02 
       1.537887697396e-04       6.708118487509e+02 
       1.660572938097e-04       7.223242657763e+02 
       1.793045413791e-04       7.777801571262e+02 
       1.936085902737e-04       8.374783638365e+02 
       2.090537469909e-04       9.017396276692e+02 
       2.257310435923e-04       9.709080297651e+02 
       2.437387742372e-04       1.045352453376e+03 
       2.631830745176e-04       1.125468127721e+03 
       2.841785470091e-04       1.211678185928e+03 
       3.068489367268e-04       1.304435256065e+03 
       3.313278604643e-04       1.404223062921e+03 
       3.577595943165e-04       1.511558029577e+03 
       3.862999240274e-04       1.626990852555e+03 
       4.171170631739e-04       1.751108045602e+03 
       4.503926445983e-04       1.884533404755e+03 
       4.863227909323e-04       2.027929406956e+03 
       5.251192705226e-04       2.181998483913e+03 
       5.670107455699e-04       2.347484146066e+03 
       6.122441198393e-04       2.525171925196e+03 
       6.610859938837e-04       2.715890054978e+03 
       7.138242363583e-04       2.920509779320e+03 
       7.707696806873e-04       3.139945208051e+03 
       8.322579570814e-04       3.375152477017e+03 
       8.986514707061e-04       3.627128020460e+03 
       9.703415376577e-04       3.896905669503e+03 
       1.047750691338e-03       4.185552452610e+03 
       1.131335172818e-03       4.494162775565e+03 
       1.221587619877e-03       4.823851150584e+03 
       1.319039970550e-03       5.175743278696e+03 
       1.424266598317e-03       5.551020298661e+03 
       1.537887697396e-03       5.950789185403e+03 
       1.660572938097e-03       6.376124150014e+03 
       1.793045413791e-03       6.828075236534e+03 
       1.936085902737e-03       7.307627050978e+03 
       2.090537469909e-03       7.815673958948e+03 
       2.257310435923e-03       8.352992922834e+03 
       2.437387742372e-03       8.920214306139e+03 
       2.631830745176e-03       9.517787166400e+03 
       2.841785470091e-03       1.014594130629e+04 
       3.068489367268e-03       1.080465136419e+04 
       3.313278604643e-03       1.149358239424e+04 
       3.577595943165e-03       1.221204586735e+04 
       3.862999240274e-03       1.295893666321e+04 
       4.171170631739e-03       1.373267338378e+04 
       4.503926445983e-03       1.453113499702e+04 
       4.863227909323e-03       1.535157114852e+04 
       5.251192705226e-03       1.619066154712e+04 
       5.670107455699e-03       1.704433880535e+04 
       6.122441198393e-03       1.790758123997e+04 
       6.610859938837e-03       1.877461995628e+04 
       7.138242363583e-03       1.963874648991e+04 
       7.707696806873e-03       2.049217383199e+04 
       8.322579570814e-03       2.132608012160e+04 
       8.986514707061e-03       2.213056715042e+04 
       9.703415376577e-03       2.289447293867e+04 
       1.047750691338e-02       2.360549520671e+04 
       1.131335172818e-02       2.425024117179e+04 
       1.221587619877e-02       2.481424694327e+04 
       1.319039970550e-02       2.528219952043e+04 
       1.424266598317e-02       2.563815116757e+04 
       1.537887697392e-02       2.586607585736e+04 
       1.660572938023e-02       2.595027044584e+04 
       1.793045412706e-02       2.587635508604e+04 
       1.936085890181e-02       2.563219643421e+04 
       2.090537352463e-02       2.520936076652e+04 
       2.257309535333e-02       2.460445353643e+04 
       2.437382002918e-02       2.382088637980e+04 
       2.631799944462e-02       2.287044738117e+04 
       2.841644545389e-02       2.177449300597e+04 
       3.067933355377e-02       2.056556620426e+04 
       3.311368470740e-02       1.928731308870e+04 
       3.571840443502e-02       1.799401788759e+04 
       3.847720348444e-02       1.674684386743e+04 
       4.135335538431e-02       1.560459323505e+04 
       4.429361667738e-02       1.461037364510e+04 
       4.724366439141e-02       1.378055357616e+04 
       5.016480835311e-02       1.310504892375e+04 
       5.303989620246e-02       1.255717419669e+04 
       5.586870669566e-02       1.210423617893e+04 
       5.866042680613e-02       1.171464592113e+04 
       6.142798932958e-02       1.136046294566e+04 
       6.418496440164e-02       1.101854298594e+04 
       6.694418833788e-02       1.067066462222e+04 
       6.971731106057e-02       1.030357154281e+04 
       7.251476155766e-02       9.909000075290e+03 
       7.534587671527e-02       9.483718522931e+03 
       7.821907666265e-02       9.029484786073e+03 
       8.114203772912e-02       8.552298283724e+03 
       8.412184535029e-02       8.061872060302e+03 
       8.716512279304e-02       7.570745440058e+03 
       9.027813695930e-02       7.092473406219e+03 
       9.346688431697e-02       6.640506317453e+03 
       9.673716028275e-02       6.226692366812e+03 
       1.000946150830e-01       5.859917385599e+03 
       1.035447986537e-01       5.545249712231e+03 
       1.070931966762e-01       5.283126456946e+03 
       1.107452594425e-01       5.069412143306e+03 
       1.145064249153e-01       4.895238099998e+03 
       1.183821370918e-01       4.747828753824e+03 
       1.223778605862e-01       4.611686626425e+03 
       1.264990921987e-01       4.470605358298e+03 
       1.307513701367e-01       4.310235651187e+03 
       1.351402814784e-01       4.121355687929e+03 
       1.396714684203e-01       3.902043571629e+03 
       1.443506338194e-01       3.658631214175e+03 
       1.491835465229e-01       3.404470289119e+03 
       1.541760469708e-01       3.156639527991e+03 
       1.593340535561e-01       2.931929946930e+03 
       1.646635702297e-01       2.742344878906e+03 
       1.701706958456e-01       2.592223992550e+03 
       1.758616357459e-01       2.477209851819e+03 
       1.817427160982e-01       2.385150868353e+03 
       1.878204015065e-01       2.300334575225e+03 
       1.941013164283e-01       2.205725610313e+03 
       2.005922709503e-01       2.090789825895e+03 
       2.073002914972e-01       1.956433068045e+03 
       2.142326570816e-01       1.814166055772e+03 
       2.213969417533e-01       1.679253070999e+03 
       2.288010639706e-01       1.563812260216e+03 
       2.364533437147e-01       1.472652599665e+03 
       2.443625682930e-01       1.401489823606e+03 
       2.525380679504e-01       1.338382509614e+03 
       2.609898026346e-01       1.270871438515e+03 
       2.697284615565e-01       1.193353173790e+03 
       2.787655775689e-01       1.109306437361e+03 
       2.881136588829e-01       1.028738193919e+03 
       2.977863412677e-01       9.604497923982e+02 
       3.077985646929e-01       9.049914820689e+02 
       3.181667794071e-01       8.561145036749e+02 
       3.289091877812e-01       8.061573978582e+02 
       3.400460299658e-01       7.523605361311e+02 
       3.515999236474e-01       6.988922971760e+02 
       3.635962711085e-01       6.510324939263e+02 
       3.760637506334e-01       6.100921307314e+02 
       3.890349143879e-01       5.721032531745e+02 
       4.025469216825e-01       5.337536266890e+02 
       4.166424456376e-01       4.956042560264e+02 
       4.313708035863e-01       4.604399267213e+02 
       4.467893782977e-01       4.287484898929e+02 
       4.629654199663e-01       3.987454085041e+02 
       4.799783501994e-01       3.692148739075e+02 
       4.979227319373e-01       3.412127830815e+02 
       5.169121270864e-01       3.154573533715e+02 
       5.370841404489e-01       2.908103847744e+02 
       5.586070464571e-01       2.670800983015e+02 
       5.816885094930e-01       2.447848004354e+02 
       6.065870144995e-01       2.235433756233e+02 
       6.336266468475e-01       2.031863446919e+02 
       6.632156059511e-01       1.838551027589e+02 
       6.958678639262e-01       1.653321162785e+02 
       7.322247985589e-01       1.476738337209e+02 
       7.730680195113e-01       1.308126215083e+02 
       8.193049553677e-01       1.148107306758e+02 
       8.718988016039e-01       9.974276120257e+01 
       9.317218031081e-01       8.575875498630e+01 
       9.993660908989e-01       7.303664009466e+01 
       1.075037110174e+00       6.171858733687e+01 
       1.158653485707e+00       5.186244852344e+01 
       1.250099157308e+00       4.342458816945e+01 
       1.349432401273e+00       3.627452189884e+01 
       1.456947457397e+00       3.025417675478e+01 
       1.573135111331e+00       2.520136212440e+01 
       1.698621895592e+00       2.096957797506e+01 
       1.834127512934e+00       1.743073328430e+01 
       1.980444934528e+00       1.447474210704e+01 
       2.138435191726e+00       1.200864543005e+01 
       2.309029199186e+00       9.953535645687e+00 
       2.493232377687e+00       8.242788305921e+00 
       2.692130395285e+00       6.820178011171e+00 
       2.906895534573e+00       5.638370937510e+00 
       3.138793597714e+00       4.657537987887e+00 
       3.389191366484e+00       3.844247862101e+00 
       3.659564657905e+00       3.170553326403e+00 
       3.951507022538e+00       2.612948785142e+00 
       4.266739136701e+00       2.151805646650e+00 
       4.607118943941e+00       1.770808106794e+00 
       4.974652605557e+00       1.456234302573e+00 
       5.371506324689e+00       1.196727883111e+00 
       5.800019113685e+00       9.827881135125e-01 
       6.262716579983e+00       8.065606534161e-01 
       6.762325811764e+00       6.615040903891e-01 
       7.301791451110e+00       5.421812826957e-01 
       7.884293049406e+00       4.440982907073e-01 
       8.513263807261e+00       3.635271412446e-01 
       9.192410809424e+00       2.973844044953e-01 
       9.925736873929e+00       2.431248798624e-01 
       1.071756414427e+01       1.986333254681e-01 
       1.157255956364e+01       1.621817876473e-01 
       1.249576238137e+01       1.323325506817e-01 
       1.349261385375e+01       1.079052762941e-01 
       1.456898931416e+01       8.792814184721e-02 
       1.573123280165e+01       7.159868129957e-02 
       1.698619445202e+01       5.825985936715e-02 
       1.834127087176e+01       4.736959279182e-02 
       1.980444873285e+01       3.848510890374e-02 
       2.138435184532e+01       3.124182272347e-02 
       2.309029198506e+01       2.533916373048e-02 
       2.493232377636e+01       2.053261834287e-02 
       2.692130395282e+01       1.662116421333e-02 
       2.906895534573e+01       1.344065349967e-02 
       3.138793597714e+01       1.085616804840e-02 
       3.389191366484e+01       8.757581866106e-03 
       3.659564657905e+01       7.055103594098e-03 
       3.951507022538e+01       5.675004923177e-03 
       4.266739136701e+01       4.557385306376e-03 
       4.607118943941e+01       3.653157968290e-03 
       4.974652605557e+01       2.922582515173e-03 
       5.371506324689e+01       2.332816827119e-03 
       5.800019113685e+01       1.857468372736e-03 
       6.262716579983e+01       1.474955366625e-03 
       6.762325811764e+01       1.167564208847e-03 
       7.301791451110e+01       9.210244828131e-04 
       7.884293049406e+01       7.237479718833e-04 
       8.513263807261e+01       5.662462892972e-04 
       9.192410809424e+01       4.408489162542e-04 
       9.925736873929e+01       3.413031393401e-04 
       1.071756414427e+02       2.625920166601e-04 
       1.157255956364e+02       2.005906825645e-04 
       1.249576238137e+02       1.519976498731e-04 
       1.349261385375e+02       1.141249399705e-04 
       1.456898931416e+02       8.479016225045e-05 
       1.573123280165e+02       6.224353160440e-05 
