# Matter power spectrum P(k) at redshift z=99
# for k=1.04775e-05 to 157.312 h/Mpc,
# number of wavenumbers equal to 257
#    1:k (h/Mpc)              2:P (Mpc/h)^3        
       1.047750691338e-05       7.261927095260e-03 
       1.131335172818e-05       7.820332150728e-03 
       1.221587619877e-05       8.421675382301e-03 
       1.319039970550e-05       9.069257737972e-03 
       1.424266598317e-05       9.766636451092e-03 
       1.537887697396e-05       1.051763973637e-02 
       1.660572938097e-05       1.132639250748e-02 
       1.793045413791e-05       1.219733201505e-02 
       1.936085902737e-05       1.313524187199e-02 
       2.090537469909e-05       1.414527084973e-02 
       2.257310435923e-05       1.523296544488e-02 
       2.437387742372e-05       1.640429654636e-02 
       2.631830745176e-05       1.766569603282e-02 
       2.841785470091e-05       1.902408711158e-02 
       3.068489367268e-05       2.048692967440e-02 
       3.313278604643e-05       2.206225467544e-02 
       3.577595943165e-05       2.375870883848e-02 
       3.862999240274e-05       2.558560669818e-02 
       4.171170631739e-05       2.755297672503e-02 
       4.503926445983e-05       2.967161933408e-02 
       4.863227909323e-05       3.195316455651e-02 
       5.251192705226e-05       3.441013466129e-02 
       5.670107455699e-05       3.705601741697e-02 
       6.122441198393e-05       3.990533412830e-02 
       6.610859938837e-05       4.297372242525e-02 
       7.138242363583e-05       4.627802054845e-02 
       7.707696806873e-05       4.983636159880e-02 
       8.322579570814e-05       5.366826786925e-02 
       8.986514707061e-05       5.779476319725e-02 
       9.703415376577e-05       6.223848221827e-02 
       1.047750691338e-04       6.702379825011e-02 
       1.131335172818e-04       7.217695031069e-02 
       1.221587619877e-04       7.772619030351e-02 
       1.319039970550e-04       8.370193380031e-02 
       1.424266598317e-04       9.013692506656e-02 
       1.537887697396e-04       9.706641130388e-02 
       1.660572938097e-04       1.045283343110e-01 
       1.793045413791e-04       1.125635329184e-01 
       1.936085902737e-04       1.212159592309e-01 
       2.090537469909e-04       1.305329107435e-01 
       2.257310435923e-04       1.405652819360e-01 
       2.437387742372e-04       1.513678275076e-01 
       2.631830745176e-04       1.629994475134e-01 
       2.841785470091e-04       1.755234890479e-01 
       3.068489367268e-04       1.890080645300e-01 
       3.313278604643e-04       2.035263977433e-01 
       3.577595943165e-04       2.191571778047e-01 
       3.862999240274e-04       2.359849423263e-01 
       4.171170631739e-04       2.541004713005e-01 
       4.503926445983e-04       2.736012061163e-01 
       4.863227909323e-04       2.945916774648e-01 
       5.251192705226e-04       3.171839507869e-01 
       5.670107455699e-04       3.414980769114e-01 
       6.122441198393e-04       3.676625416308e-01 
       6.610859938837e-04       3.958147272873e-01 
       7.138242363583e-04       4.261013332074e-01 
       7.707696806873e-04       4.586787880860e-01 
       8.322579570814e-04       4.937136112832e-01 
       8.986514707061e-04       5.313826962089e-01 
       9.703415376577e-04       5.718735176818e-01 
       1.047750691338e-03       6.153841926266e-01 
       1.131335172818e-03       6.621233623140e-01 
       1.221587619877e-03       7.123098743672e-01 
       1.319039970550e-03       7.661721263807e-01 
       1.424266598317e-03       8.239547181324e-01 
       1.537887697396e-03       8.859012282840e-01 
       1.660572938097e-03       9.522589495776e-01 
       1.793045413791e-03       1.023280284739e+00 
       1.936085902737e-03       1.099216542129e+00 
       2.090537469909e-03       1.180313285062e+00 
       2.257310435923e-03       1.266804486836e+00 
       2.437387742372e-03       1.358905328492e+00 
       2.631830745176e-03       1.456803285981e+00 
       2.841785470091e-03       1.560647663069e+00 
       3.068489367268e-03       1.670537010609e+00 
       3.313278604643e-03       1.786505039670e+00 
       3.577595943165e-03       1.908504410146e+00 
       3.862999240274e-03       2.036389468780e+00 
       4.171170631739e-03       2.169898252813e+00 
       4.503926445983e-03       2.308634491961e+00 
       4.863227909323e-03       2.452050674739e+00 
       5.251192705226e-03       2.599434681054e+00 
       5.670107455699e-03       2.749901126324e+00 
       6.122441198393e-03       2.902390058101e+00 
       6.610859938837e-03       3.055671269485e+00 
       7.138242363583e-03       3.208360122342e+00 
       7.707696806873e-03       3.358926650643e+00 
       8.322579570814e-03       3.505726888866e+00 
       8.986514707061e-03       3.647012436483e+00 
       9.703415376577e-03       3.780926177501e+00 
       1.047750691338e-02       3.905492878224e+00 
       1.131335172818e-02       4.018589822772e+00 
       1.221587619877e-02       4.117902884465e+00 
       1.319039970550e-02       4.200917694690e+00 
       1.424266598317e-02       4.264943731502e+00 
       1.537887697392e-02       4.307219660006e+00 
       1.660572938023e-02       4.325062445292e+00 
       1.793045412706e-02       4.316060375821e+00 
       1.936085890181e-02       4.278228910782e+00 
       2.090537352463e-02       4.210204445195e+00 
       2.257309535333e-02       4.111418711675e+00 
       2.437382002918e-02       3.982420888754e+00 
       2.631799944462e-02       3.825168623297e+00 
       2.841644545389e-02       3.643282162022e+00 
       3.067933355377e-02       3.442198605814e+00 
       3.311368470740e-02       3.229241524501e+00 
       3.571840443502e-02       3.013516185464e+00 
       3.847720348444e-02       2.805284651573e+00 
       4.135335538431e-02       2.614410492768e+00 
       4.429361667738e-02       2.448131946242e+00 
       4.724366439141e-02       2.309240396773e+00 
       5.016480835311e-02       2.196114918166e+00 
       5.303989620246e-02       2.104369548661e+00 
       5.586870669566e-02       2.028462234945e+00 
       5.866042680613e-02       1.963154909708e+00 
       6.142798932958e-02       1.903779278420e+00 
       6.418496440164e-02       1.846478756746e+00 
       6.694418833788e-02       1.788197011021e+00 
       6.971731106057e-02       1.726715208417e+00 
       7.251476155766e-02       1.660653931169e+00 
       7.534587671527e-02       1.589469302258e+00 
       7.821907666265e-02       1.513436173313e+00 
       8.114203772912e-02       1.433568396228e+00 
       8.412184535029e-02       1.351490323988e+00 
       8.716512279304e-02       1.269272685719e+00 
       9.027813695930e-02       1.189192843417e+00 
       9.346688431697e-02       1.113500658953e+00 
       9.673716028275e-02       1.044174132324e+00 
       1.000946150830e-01       9.827056544861e-01 
       1.035447986537e-01       9.299369997268e-01 
       1.070931966762e-01       8.859581499872e-01 
       1.107452594425e-01       8.500707334866e-01 
       1.145064249153e-01       8.208029431162e-01 
       1.183821370918e-01       7.960245974035e-01 
       1.223778605862e-01       7.731454028395e-01 
       1.264990921987e-01       7.494515534905e-01 
       1.307513701367e-01       7.225566172667e-01 
       1.351402814784e-01       6.909079520609e-01 
       1.396714684203e-01       6.541802115222e-01 
       1.443506338194e-01       6.134257200651e-01 
       1.491835465229e-01       5.708671795772e-01 
       1.541760469708e-01       5.293634658067e-01 
       1.593340535561e-01       4.917100159480e-01 
       1.646635702297e-01       4.599191173355e-01 
       1.701706958456e-01       4.347270548931e-01 
       1.758616357459e-01       4.154069397883e-01 
       1.817427160982e-01       3.999359489248e-01 
       1.878204015065e-01       3.856820147745e-01 
       1.941013164283e-01       3.698086434723e-01 
       2.005922709503e-01       3.505456976058e-01 
       2.073002914972e-01       3.280422581931e-01 
       2.142326570816e-01       3.042128760287e-01 
       2.213969417533e-01       2.816107494241e-01 
       2.288010639706e-01       2.622559152930e-01 
       2.364533437147e-01       2.469608828290e-01 
       2.443625682930e-01       2.350123435733e-01 
       2.525380679504e-01       2.244169537367e-01 
       2.609898026346e-01       2.130929072336e-01 
       2.697284615565e-01       2.001011160616e-01 
       2.787655775689e-01       1.860191624811e-01 
       2.881136588829e-01       1.725163802083e-01 
       2.977863412677e-01       1.610651609541e-01 
       3.077985646929e-01       1.517600917919e-01 
       3.181667794071e-01       1.435583416034e-01 
       3.289091877812e-01       1.351806913799e-01 
       3.400460299658e-01       1.261634521726e-01 
       3.515999236474e-01       1.172011773684e-01 
       3.635962711085e-01       1.091760755100e-01 
       3.760637506334e-01       1.023086849969e-01 
       3.890349143879e-01       9.593690076257e-02 
       4.025469216825e-01       8.950691893253e-02 
       4.166424456376e-01       8.311098381683e-02 
       4.313708035863e-01       7.721470628863e-02 
       4.467893782977e-01       7.189982267100e-02 
       4.629654199663e-01       6.686826235036e-02 
       4.799783501994e-01       6.191676696751e-02 
       4.979227319373e-01       5.722146557487e-02 
       5.169121270864e-01       5.290212978163e-02 
       5.370841404489e-01       4.876903663202e-02 
       5.586070464571e-01       4.478998775726e-02 
       5.816885094930e-01       4.105119041748e-02 
       6.065870144995e-01       3.748920125018e-02 
       6.336266468475e-01       3.407552327259e-02 
       6.632156059511e-01       3.083386004220e-02 
       6.958678639262e-01       2.772771234496e-02 
       7.322247985589e-01       2.476650591925e-02 
       7.730680195113e-01       2.193899322313e-02 
       8.193049553677e-01       1.925555706074e-02 
       8.718988016039e-01       1.672874873035e-02 
       9.317218031081e-01       1.438363771312e-02 
       9.993660908989e-01       1.225014731555e-02 
       1.075037110174e+00       1.035210569997e-02 
       1.158653485707e+00       8.699207501484e-03 
       1.250099157308e+00       7.284140545880e-03 
       1.349432401273e+00       6.085036014219e-03 
       1.456947457397e+00       5.075353365211e-03 
       1.573135111331e+00       4.227929955483e-03 
       1.698621895592e+00       3.518191026129e-03 
       1.834127512934e+00       2.924647552090e-03 
       1.980444934528e+00       2.428850301078e-03 
       2.138435191726e+00       2.015216496067e-03 
       2.309029199186e+00       1.670501282178e-03 
       2.493232377687e+00       1.383536423089e-03 
       2.692130395285e+00       1.144891996373e-03 
       2.906895534573e+00       9.466334023982e-04 
       3.138793597714e+00       7.820807941199e-04 
       3.389191366484e+00       6.456280116466e-04 
       3.659564657905e+00       5.325883642599e-04 
       3.951507022538e+00       4.390158963277e-04 
       4.266739136701e+00       3.616354480848e-04 
       4.607118943941e+00       2.976837994375e-04 
       4.974652605557e+00       2.448797390213e-04 
       5.371506324689e+00       2.013133036200e-04 
       5.800019113685e+00       1.653914393211e-04 
       6.262716579983e+00       1.357969284889e-04 
       6.762325811764e+00       1.114312258628e-04 
       7.301791451110e+00       9.138430775250e-05 
       7.884293049406e+00       7.490146056093e-05 
       8.513263807261e+00       6.135781456353e-05 
       9.192410809424e+00       5.023574274759e-05 
       9.925736873929e+00       4.110834061977e-05 
       1.071756414427e+01       3.362150536533e-05 
       1.157255956364e+01       2.748461344165e-05 
       1.249576238137e+01       2.245632769782e-05 
       1.349261385375e+01       1.833900399826e-05 
       1.456898931416e+01       1.496944310168e-05 
       1.573123280165e+01       1.221318150888e-05 
       1.698619445202e+01       9.959616269962e-06 
       1.834127087176e+01       8.118101947478e-06 
       1.980444873285e+01       6.613988543889e-06 
       2.138435184532e+01       5.386034924314e-06 
       2.309029198506e+01       4.384019161744e-06 
       2.493232377636e+01       3.566758849197e-06 
       2.692130395282e+01       2.900424046856e-06 
       2.906895534573e+01       2.357432112451e-06 
       3.138793597714e+01       1.915170284949e-06 
       3.389191366484e+01       1.555080536136e-06 
       3.659564657905e+01       1.262040734879e-06 
       3.951507022538e+01       1.023665815135e-06 
       4.266739136701e+01       8.298522667698e-07 
       4.607118943941e+01       6.723030130350e-07 
       4.974652605557e+01       5.443517057830e-07 
       5.371506324689e+01       4.404477938530e-07 
       5.800019113685e+01       3.561213093782e-07 
       6.262716579983e+01       2.877135287140e-07 
       6.762325811764e+01       2.322530483557e-07 
       7.301791451110e+01       1.873122388859e-07 
       7.884293049406e+01       1.509140741041e-07 
       8.513263807261e+01       1.214557359468e-07 
       9.192410809424e+01       9.762688134362e-08 
       9.925736873929e+01       7.836777582786e-08 
       1.071756414427e+02       6.281174555974e-08 
       1.157255956364e+02       5.025742736640e-08 
       1.249576238137e+02       4.013653308111e-08 
       1.349261385375e+02       3.198467909347e-08 
       1.456898931416e+02       2.542698832934e-08 
       1.573123280165e+02       2.015861121932e-08 
