# Matter power spectrum P(k) at redshift z=99
# for k=1.04775e-05 to 157.312 h/Mpc,
# number of wavenumbers equal to 257
#    1:k (h/Mpc)              2:P (Mpc/h)^3        
       1.047750691338e-05       7.261927096718e-03 
       1.131335172818e-05       7.820332152298e-03 
       1.221587619877e-05       8.421675383989e-03 
       1.319039970550e-05       9.069257739790e-03 
       1.424266598317e-05       9.766636453049e-03 
       1.537887697396e-05       1.051763973848e-02 
       1.660572938097e-05       1.132639250975e-02 
       1.793045413791e-05       1.219733201748e-02 
       1.936085902737e-05       1.313524187462e-02 
       2.090537469909e-05       1.414527085256e-02 
       2.257310435923e-05       1.523296544793e-02 
       2.437387742372e-05       1.640429654965e-02 
       2.631830745176e-05       1.766569603635e-02 
       2.841785470091e-05       1.902408711538e-02 
       3.068489367268e-05       2.048692967848e-02 
       3.313278604643e-05       2.206225467983e-02 
       3.577595943165e-05       2.375870884314e-02 
       3.862999240274e-05       2.558560670329e-02 
       4.171170631739e-05       2.755297673063e-02 
       4.503926445983e-05       2.967161934008e-02 
       4.863227909323e-05       3.195316456294e-02 
       5.251192705226e-05       3.441013466812e-02 
       5.670107455699e-05       3.705601742447e-02 
       6.122441198393e-05       3.990533413650e-02 
       6.610859938837e-05       4.297372243398e-02 
       7.138242363583e-05       4.627802055820e-02 
       7.707696806873e-05       4.983636160898e-02 
       8.322579570814e-05       5.366826787998e-02 
       8.986514707061e-05       5.779476320885e-02 
       9.703415376577e-05       6.223848223070e-02 
       1.047750691338e-04       6.702379826351e-02 
       1.131335172818e-04       7.217695032488e-02 
       1.221587619877e-04       7.772619031897e-02 
       1.319039970550e-04       8.370193381736e-02 
       1.424266598317e-04       9.013692508445e-02 
       1.537887697396e-04       9.706641132318e-02 
       1.660572938097e-04       1.045283343318e-01 
       1.793045413791e-04       1.125635329408e-01 
       1.936085902737e-04       1.212159592549e-01 
       2.090537469909e-04       1.305329107693e-01 
       2.257310435923e-04       1.405652819638e-01 
       2.437387742372e-04       1.513678275373e-01 
       2.631830745176e-04       1.629994475454e-01 
       2.841785470091e-04       1.755234890823e-01 
       3.068489367268e-04       1.890080645670e-01 
       3.313278604643e-04       2.035263977829e-01 
       3.577595943165e-04       2.191571778472e-01 
       3.862999240274e-04       2.359849423718e-01 
       4.171170631739e-04       2.541004713492e-01 
       4.503926445983e-04       2.736012061683e-01 
       4.863227909323e-04       2.945916775203e-01 
       5.251192705226e-04       3.171839508461e-01 
       5.670107455699e-04       3.414980769743e-01 
       6.122441198393e-04       3.676625416975e-01 
       6.610859938837e-04       3.958147273578e-01 
       7.138242363583e-04       4.261013332817e-01 
       7.707696806873e-04       4.586787881640e-01 
       8.322579570814e-04       4.937136113648e-01 
       8.986514707061e-04       5.313826962935e-01 
       9.703415376577e-04       5.718735177688e-01 
       1.047750691338e-03       6.153841927150e-01 
       1.131335172818e-03       6.621233624026e-01 
       1.221587619877e-03       7.123098744543e-01 
       1.319039970550e-03       7.661721264639e-01 
       1.424266598317e-03       8.239547182099e-01 
       1.537887697396e-03       8.859012283508e-01 
       1.660572938097e-03       9.522589496258e-01 
       1.793045413791e-03       1.023280284758e+00 
       1.936085902737e-03       1.099216542106e+00 
       2.090537469909e-03       1.180313284978e+00 
       2.257310435923e-03       1.266804486668e+00 
       2.437387742372e-03       1.358905328208e+00 
       2.631830745176e-03       1.456803285538e+00 
       2.841785470091e-03       1.560647662411e+00 
       3.068489367268e-03       1.670537009660e+00 
       3.313278604643e-03       1.786505038328e+00 
       3.577595943165e-03       1.908504408274e+00 
       3.862999240274e-03       2.036389466192e+00 
       4.171170631739e-03       2.169898249263e+00 
       4.503926445983e-03       2.308634487109e+00 
       4.863227909323e-03       2.452050668128e+00 
       5.251192705226e-03       2.599434672079e+00 
       5.670107455699e-03       2.749901114142e+00 
       6.122441198393e-03       2.902390041620e+00 
       6.610859938837e-03       3.055671366214e+00 
       7.138242363583e-03       3.208360154992e+00 
       7.707696806873e-03       3.358926595196e+00 
       8.322579570814e-03       3.505728005303e+00 
       8.986514707061e-03       3.647012669808e+00 
       9.703415376577e-03       3.780925824370e+00 
       1.047750691338e-02       3.905492743331e+00 
       1.131335172818e-02       4.018589700986e+00 
       1.221587619877e-02       4.117902669910e+00 
       1.319039970550e-02       4.200917400004e+00 
       1.424266598317e-02       4.264943328143e+00 
       1.537887697392e-02       4.307219116913e+00 
       1.660572938023e-02       4.325061730024e+00 
       1.793045412706e-02       4.316059529179e+00 
       1.936085890181e-02       4.278227720171e+00 
       2.090537352463e-02       4.210203087627e+00 
       2.257309535333e-02       4.111417005092e+00 
       2.437382002918e-02       3.982418749293e+00 
       2.631799944462e-02       3.825165966118e+00 
       2.841644545389e-02       3.643278757283e+00 
       3.067933355377e-02       3.442194609144e+00 
       3.311368470740e-02       3.229236879826e+00 
       3.571840443502e-02       3.013510417395e+00 
       3.847720348444e-02       2.805277847445e+00 
       4.135335538431e-02       2.614402496880e+00 
       4.429361667738e-02       2.448122865868e+00 
       4.724366439141e-02       2.309230127949e+00 
       5.016480835311e-02       2.196103488904e+00 
       5.303989620246e-02       2.104357005451e+00 
       5.586870669566e-02       2.028448637414e+00 
       5.866042680613e-02       1.963140274763e+00 
       6.142798932958e-02       1.903763677011e+00 
       6.418496440164e-02       1.846462264129e+00 
       6.694418833788e-02       1.788179708376e+00 
       6.971731106057e-02       1.726697218889e+00 
       7.251476155766e-02       1.660635263889e+00 
       7.534587671527e-02       1.589450113425e+00 
       7.821907666265e-02       1.513416458279e+00 
       8.114203772912e-02       1.433548259291e+00 
       8.412184535029e-02       1.351471135486e+00 
       8.716512279304e-02       1.269252726613e+00 
       9.027813695930e-02       1.189171629127e+00 
       9.346688431697e-02       1.113479095253e+00 
       9.673716028275e-02       1.044152166266e+00 
       1.000946150830e-01       9.826832460616e-01 
       1.035447986537e-01       9.299157268710e-01 
       1.070931966762e-01       8.859346190454e-01 
       1.107452594425e-01       8.500465229288e-01 
       1.145064249153e-01       8.207780131426e-01 
       1.183821370918e-01       7.959982425155e-01 
       1.223778605862e-01       7.731187723881e-01 
       1.264990921987e-01       7.494248824263e-01 
       1.307513701367e-01       7.225291624231e-01 
       1.351402814784e-01       6.908800752076e-01 
       1.396714684203e-01       6.541520331271e-01 
       1.443506338194e-01       6.133976237778e-01 
       1.491835465229e-01       5.708391316860e-01 
       1.541760469708e-01       5.293357601366e-01 
       1.593340535561e-01       4.916820402890e-01 
       1.646635702297e-01       4.598910271838e-01 
       1.701706958456e-01       4.346986181435e-01 
       1.758616357459e-01       4.153781778126e-01 
       1.817427160982e-01       3.999065634786e-01 
       1.878204015065e-01       3.856522449588e-01 
       1.941013164283e-01       3.697785429911e-01 
       2.005922709503e-01       3.505155483049e-01 
       2.073002914972e-01       3.280119607691e-01 
       2.142326570816e-01       3.041830032307e-01 
       2.213969417533e-01       2.815810500913e-01 
       2.288010639706e-01       2.622264135052e-01 
       2.364533437147e-01       2.469312940457e-01 
       2.443625682930e-01       2.349825678111e-01 
       2.525380679504e-01       2.243869894727e-01 
       2.609898026346e-01       2.130626906122e-01 
       2.697284615565e-01       2.000711068057e-01 
       2.787655775689e-01       1.859895029282e-01 
       2.881136588829e-01       1.724870021510e-01 
       2.977863412677e-01       1.610359657213e-01 
       3.077985646929e-01       1.517309070122e-01 
       3.181667794071e-01       1.435294042432e-01 
       3.289091877812e-01       1.351516246140e-01 
       3.400460299658e-01       1.261347463527e-01 
       3.515999236474e-01       1.171725650097e-01 
       3.635962711085e-01       1.091478018733e-01 
       3.760637506334e-01       1.022806214294e-01 
       3.890349143879e-01       9.590897927914e-02 
       4.025469216825e-01       8.947926335209e-02 
       4.166424456376e-01       8.308363729451e-02 
       4.313708035863e-01       7.718770914594e-02 
       4.467893782977e-01       7.187304132067e-02 
       4.629654199663e-01       6.684177518940e-02 
       4.799783501994e-01       6.189060467903e-02 
       4.979227319373e-01       5.719561680582e-02 
       5.169121270864e-01       5.287664545488e-02 
       5.370841404489e-01       4.874390897753e-02 
       5.586070464571e-01       4.476526382997e-02 
       5.816885094930e-01       4.102684699119e-02 
       6.065870144995e-01       3.746529455681e-02 
       6.336266468475e-01       3.405204216510e-02 
       6.632156059511e-01       3.081085319396e-02 
       6.958678639262e-01       2.770519779357e-02 
       7.322247985589e-01       2.474452351682e-02 
       7.730680195113e-01       2.191757856125e-02 
       8.193049553677e-01       1.923475216313e-02 
       8.718988016039e-01       1.670859815457e-02 
       9.317218031081e-01       1.436417319517e-02 
       9.993660908989e-01       1.223140003410e-02 
       1.075037110174e+00       1.033410069631e-02 
       1.158653485707e+00       8.681960548401e-03 
       1.250099157308e+00       7.267640526656e-03 
       1.349432401273e+00       6.069263789203e-03 
       1.456947457397e+00       5.060270951343e-03 
       1.573135111331e+00       4.213574984553e-03 
       1.698621895592e+00       3.504523346650e-03 
       1.834127512934e+00       2.911602265703e-03 
       1.980444934528e+00       2.416448423923e-03 
       2.138435191726e+00       2.003433197907e-03 
       2.309029199186e+00       1.659304023823e-03 
       2.493232377687e+00       1.372904410607e-03 
       2.692130395285e+00       1.134797499789e-03 
       2.906895534573e+00       9.370571357378e-04 
       3.138793597714e+00       7.729990786361e-04 
       3.389191366484e+00       6.370249635483e-04 
       3.659564657905e+00       5.244356430243e-04 
       3.951507022538e+00       4.312998954470e-04 
       4.266739136701e+00       3.543287219010e-04 
       4.607118943941e+00       2.907743280775e-04 
       4.974652605557e+00       2.383479991725e-04 
       5.371506324689e+00       1.951403166304e-04 
       5.800019113685e+00       1.595645485732e-04 
       6.262716579983e+00       1.302988808611e-04 
       6.762325811764e+00       1.062469832328e-04 
       7.301791451110e+00       8.650055156765e-05 
       7.884293049406e+00       7.030490795503e-05 
       8.513263807261e+00       5.703538673401e-05 
       9.192410809424e+00       4.617538974128e-05 
       9.925736873929e+00       3.729873446971e-05 
       1.071756414427e+01       3.005187398675e-05 
       1.157255956364e+01       2.414448733763e-05 
       1.249576238137e+01       1.933662647566e-05 
       1.349261385375e+01       1.543039608418e-05 
       1.456898931416e+01       1.226308091351e-05 
       1.573123280165e+01       9.700877581022e-06 
       1.698619445202e+01       7.633426070375e-06 
       1.834127087176e+01       5.970428045486e-06 
       1.980444873285e+01       4.637420179499e-06 
       2.138435184532e+01       3.573297860479e-06 
       2.309029198506e+01       2.728038328206e-06 
       2.493232377636e+01       2.060488728431e-06 
       2.692130395282e+01       1.536999675455e-06 
       2.906895534573e+01       1.129784282827e-06 
       3.138793597714e+01       8.161967412597e-07 
       3.389191366484e+01       5.775961169289e-07 
       3.659564657905e+01       3.986752643156e-07 
       3.951507022538e+01       2.669155245609e-07 
       4.266739136701e+01       1.720193864138e-07 
       4.607118943941e+01       1.055663321519e-07 
       4.974652605557e+01       6.069856169584e-08 
       5.371506324689e+01       3.183911329306e-08 
       5.800019113685e+01       1.451253865758e-08 
       6.262716579983e+01       5.163873981102e-09 
       6.762325811764e+01       1.023904331681e-09 
       7.301791451110e+01       7.806882959656e-14 
       7.884293049406e+01       5.723294028349e-10 
       8.513263807261e+01       1.705940456044e-09 
       9.192410809424e+01       2.758933747702e-09 
       9.925736873929e+01       3.408119028072e-09 
       1.071756414427e+02       3.559083064500e-09 
       1.157255956364e+02       3.273556779515e-09 
       1.249576238137e+02       2.694617250937e-09 
       1.349261385375e+02       1.991153328246e-09 
       1.456898931416e+02       1.310016078578e-09 
       1.573123280165e+02       7.515213203136e-10 
