# Matter power spectrum P(k) at redshift z=0
# for k=1.04775e-05 to 66.1767 h/Mpc,
# number of wavenumbers equal to 130
#    1:k (h/Mpc)              2:P (Mpc/h)^3        
       1.047750691046e-05       5.020964811569e+01 
       1.319039970183e-05       6.270561467217e+01 
       1.660572937635e-05       7.831147247916e+01 
       2.090537469327e-05       9.780108072529e+01 
       2.631830744443e-05       1.221408203816e+02 
       3.313278603720e-05       1.525374501934e+02 
       4.171170630578e-05       1.904975994100e+02 
       5.251192703764e-05       2.379022224046e+02 
       6.610859936996e-05       2.970989227898e+02 
       8.322579568497e-05       3.710167318955e+02 
       1.047750691046e-04       4.633080766745e+02 
       1.319039970183e-04       5.785234129384e+02 
       1.660572937635e-04       7.223242666092e+02 
       2.090537469327e-04       9.017396271824e+02 
       2.631830744443e-04       1.125468123767e+03 
       3.313278603720e-04       1.404223053680e+03 
       4.171170630578e-04       1.751108028775e+03 
       5.251192703764e-04       2.181998448128e+03 
       6.610859936996e-04       2.715889983588e+03 
       8.322579568497e-04       3.375152337069e+03 
       1.047750691046e-03       4.185552174186e+03 
       1.319039970183e-03       5.175742744082e+03 
       1.660572937635e-03       6.376123050586e+03 
       2.090537469327e-03       7.815671855509e+03 
       2.631830744443e-03       9.517783057765e+03 
       3.313278603720e-03       1.149357457143e+04 
       4.171170630578e-03       1.373265977554e+04 
       5.251192703764e-03       1.619063586406e+04 
       6.610859936996e-03       1.877460352588e+04 
       8.322579568497e-03       2.132606854650e+04 
       1.047750691046e-02       2.360548176186e+04 
       1.319039970183e-02       2.528217917937e+04 
       1.660572937633e-02       2.595027822010e+04 
       2.090537453514e-02       2.520930972233e+04 
       2.631818545635e-02       2.287028425630e+04 
       3.311571692125e-02       1.928611686521e+04 
       4.113809243311e-02       1.568408638231e+04 
       4.792590854610e-02       1.361032827674e+04 
       5.284436902701e-02       1.259093415459e+04 
       5.689644391095e-02       1.195517234305e+04 
       6.051252627066e-02       1.147502163775e+04 
       6.388413457411e-02       1.105543383766e+04 
       6.711249296401e-02       1.064849945123e+04 
       7.025823437965e-02       1.022876696138e+04 
       7.336115587705e-02       9.783978328334e+03 
       7.644928796912e-02       9.311083111839e+03 
       7.954353299775e-02       8.813937418716e+03 
       8.266024078725e-02       8.301558847153e+03 
       8.581273398637e-02       7.786364606119e+03 
       8.901225918437e-02       7.282574703784e+03 
       9.226860540985e-02       6.804530846436e+03 
       9.559052048996e-02       6.365027679073e+03 
       9.898599946599e-02       5.973720694950e+03 
       1.024624891378e-01       5.636655013859e+03 
       1.060270359164e-01       5.355104470141e+03 
       1.096863943056e-01       5.125529876358e+03 
       1.134471073830e-01       4.939752291028e+03 
       1.173155669539e-01       4.785406573626e+03 
       1.212980586983e-01       4.647145946142e+03 
       1.254007961065e-01       4.508320340038e+03 
       1.296299459934e-01       4.353713374937e+03 
       1.339916477160e-01       4.172370184731e+03 
       1.384920277736e-01       3.960312344617e+03 
       1.431372111762e-01       3.721800039407e+03 
       1.479333307714e-01       3.468697676183e+03 
       1.528865355934e-01       3.217455869727e+03 
       1.580029992204e-01       2.985400101110e+03 
       1.632889290723e-01       2.786071093728e+03 
       1.687505775527e-01       2.625927501142e+03 
       1.743942559171e-01       2.502852502141e+03 
       1.802263517371e-01       2.406388638327e+03 
       1.862533508214e-01       2.321299315129e+03 
       1.924818644494e-01       2.230576312806e+03 
       1.989186627765e-01       2.121209750042e+03 
       2.055707152847e-01       1.991048306049e+03 
       2.124452391818e-01       1.849338593241e+03 
       2.195497567139e-01       1.711196352840e+03 
       2.268921624510e-01       1.589999087971e+03 
       2.344808017550e-01       1.492675696629e+03 
       2.423245618548e-01       1.417299317764e+03 
       2.504329772620e-01       1.353446033944e+03 
       2.588163516754e-01       1.287908359527e+03 
       2.674858990930e-01       1.212905439528e+03 
       2.764539076010e-01       1.129664031055e+03 
       2.857339303080e-01       1.047072723696e+03 
       2.953410092148e-01       9.751550652214e+02 
       3.052919395542e-01       9.167795531114e+02 
       3.156055844677e-01       8.668587841439e+02 
       3.263032530092e-01       8.174843499485e+02 
       3.374091587054e-01       7.641038245855e+02 
       3.489509817175e-01       7.096317021859e+02 
       3.609605657343e-01       6.597484123860e+02 
       3.734747921333e-01       6.170482455547e+02 
       3.865366902904e-01       5.782705061372e+02 
       4.001968667448e-01       5.393530254568e+02 
       4.145153713076e-01       5.001167146886e+02 
       4.295641718077e-01       4.634690178405e+02 
       4.454304922144e-01       4.303796904932e+02 
       4.622214006969e-01       3.990905321109e+02 
       4.800702491654e-01       3.680688774813e+02 
       4.991459272112e-01       3.384620551188e+02 
       5.196665217302e-01       3.109752279803e+02 
       5.419201087032e-01       2.842441201242e+02 
       5.662975451962e-01       2.583352098476e+02 
       5.933463737275e-01       2.335594444297e+02 
       6.238638458458e-01       2.092517814709e+02 
       6.590669257916e-01       1.854663439794e+02 
       7.009246080454e-01       1.617706194889e+02 
       7.528593308799e-01       1.378805116079e+02 
       8.213469537518e-01       1.132712658884e+02 
       9.196980813302e-01       8.747153734951e+01 
       1.075112183810e+00       6.088134465647e+01 
       1.322697471132e+00       3.725929688809e+01 
       1.662328205042e+00       2.138584771571e+01 
       2.092692408506e+00       1.203094451372e+01 
       2.634543445090e+00       6.639830137431e+00 
       3.316693691389e+00       3.576235974470e+00 
       4.175469971226e+00       1.863354392290e+00 
       5.256605252960e+00       9.259764229007e-01 
       6.617673932723e+00       4.288773203204e-01 
       8.331157880872e+00       1.781148373095e-01 
       1.048830636590e+01       6.183471721526e-02 
       1.320399541071e+01       1.542230163250e-02 
       1.662284535976e+01       1.688267137543e-03 
       2.092692243973e+01       4.562763931159e-05 
       2.634543445002e+01       6.714852160964e-04 
       3.316693691389e+01       6.161654057148e-04 
       4.175469971226e+01       1.909995127870e-04 
       5.256605252960e+01       8.429610978253e-06 
       6.617673932723e+01       4.361320652216e-06 
