# Matter power spectrum P(k) at redshift z=0
# for k=1.04775e-05 to 66.1767 h/Mpc,
# number of wavenumbers equal to 130
#    1:k (h/Mpc)              2:P (Mpc/h)^3        
       1.047750691046e-05       5.020964811318e+01 
       1.319039970183e-05       6.270562594944e+01 
       1.660572937635e-05       7.831147247912e+01 
       2.090537469327e-05       9.780108069451e+01 
       2.631830744443e-05       1.221408203810e+02 
       3.313278603720e-05       1.525374501932e+02 
       4.171170630578e-05       1.904975994013e+02 
       5.251192703764e-05       2.379022224239e+02 
       6.610859936996e-05       2.970989227884e+02 
       8.322579568497e-05       3.710167318946e+02 
       1.047750691046e-04       4.633080766742e+02 
       1.319039970183e-04       5.785234129333e+02 
       1.660572937635e-04       7.223242666092e+02 
       2.090537469327e-04       9.017396271824e+02 
       2.631830744443e-04       1.125468123751e+03 
       3.313278603720e-04       1.404223053681e+03 
       4.171170630578e-04       1.751108028789e+03 
       5.251192703764e-04       2.181998448133e+03 
       6.610859936996e-04       2.715889983592e+03 
       8.322579568497e-04       3.375152337114e+03 
       1.047750691046e-03       4.185552174320e+03 
       1.319039970183e-03       5.175742742984e+03 
       1.660572937635e-03       6.376123051749e+03 
       2.090537469327e-03       7.815671864662e+03 
       2.631830744443e-03       9.517783068586e+03 
       3.313278603720e-03       1.149357460233e+04 
       4.171170630578e-03       1.373266002694e+04 
       5.251192703764e-03       1.619063613454e+04 
       6.610859936996e-03       1.877460422067e+04 
       8.322579568497e-03       2.132607192554e+04 
       1.047750691046e-02       2.360548850601e+04 
       1.319039970183e-02       2.528218565354e+04 
       1.660572937633e-02       2.595026628404e+04 
       2.090537453514e-02       2.520936222616e+04 
       2.631818545635e-02       2.287033917811e+04 
       3.311571692125e-02       1.928625803894e+04 
       4.113809243311e-02       1.568427394588e+04 
       4.792590854610e-02       1.361059405168e+04 
       5.284436902701e-02       1.259132785183e+04 
       5.689644391095e-02       1.195554502546e+04 
       6.051252627066e-02       1.147543482027e+04 
       6.388413457411e-02       1.105585212721e+04 
       6.711249296401e-02       1.064896004350e+04 
       7.025823437965e-02       1.022927006470e+04 
       7.336115587705e-02       9.784492631108e+03 
       7.644928796912e-02       9.311615607966e+03 
       7.954353299775e-02       8.814479597498e+03 
       8.266024078725e-02       8.302122007355e+03 
       8.581273398637e-02       7.786916513499e+03 
       8.901225918437e-02       7.283162972416e+03 
       9.226860540985e-02       6.805133621058e+03 
       9.559052048996e-02       6.365597920430e+03 
       9.898599946599e-02       5.974390242035e+03 
       1.024624891378e-01       5.637320981135e+03 
       1.060270359164e-01       5.355766769119e+03 
       1.096863943056e-01       5.126228143237e+03 
       1.134471073830e-01       4.940465539201e+03 
       1.173155669539e-01       4.786135839776e+03 
       1.212980586983e-01       4.647904687612e+03 
       1.254007961065e-01       4.509125193130e+03 
       1.296299459934e-01       4.354536990805e+03 
       1.339916477160e-01       4.173190628028e+03 
       1.384920277736e-01       3.961135773323e+03 
       1.431372111762e-01       3.722628824842e+03 
       1.479333307714e-01       3.469542854057e+03 
       1.528865355934e-01       3.218309881558e+03 
       1.580029992204e-01       2.986242895142e+03 
       1.632889290723e-01       2.786933622025e+03 
       1.687505775527e-01       2.626793299108e+03 
       1.743942559171e-01       2.503739922828e+03 
       1.802263517371e-01       2.407298527498e+03 
       1.862533508214e-01       2.322219754227e+03 
       1.924818644494e-01       2.231518462903e+03 
       1.989186627765e-01       2.122155322721e+03 
       2.055707152847e-01       1.991997998585e+03 
       2.124452391818e-01       1.850292728066e+03 
       2.195497567139e-01       1.712135591143e+03 
       2.268921624510e-01       1.590946923886e+03 
       2.344808017550e-01       1.493628542638e+03 
       2.423245618548e-01       1.418275055577e+03 
       2.504329772620e-01       1.354430699712e+03 
       2.588163516754e-01       1.288899731067e+03 
       2.674858990930e-01       1.213904526427e+03 
       2.764539076010e-01       1.130661496898e+03 
       2.857339303080e-01       1.048065724911e+03 
       2.953410092148e-01       9.761488977584e+02 
       3.052919395542e-01       9.177767318568e+02 
       3.156055844677e-01       8.678626793558e+02 
       3.263032530092e-01       8.184922739590e+02 
       3.374091587054e-01       7.651132505422e+02 
       3.489509817175e-01       7.106400337036e+02 
       3.609605657343e-01       6.607526180163e+02 
       3.734747921333e-01       6.180520896634e+02 
       3.865366902904e-01       5.792792852200e+02 
       4.001968667448e-01       5.403587948767e+02 
       4.145153713076e-01       5.011211579759e+02 
       4.295641718077e-01       4.644690922702e+02 
       4.454304922144e-01       4.313781161891e+02 
       4.622214006969e-01       4.000843431138e+02 
       4.800702491654e-01       3.690608972142e+02 
       4.991459272112e-01       3.394468219838e+02 
       5.196665217302e-01       3.119571245263e+02 
       5.419201087032e-01       2.852191657833e+02 
       5.662975451962e-01       2.593030653619e+02 
       5.933463737275e-01       2.345216171514e+02 
       6.238638458458e-01       2.102053146765e+02 
       6.590669257916e-01       1.864081487057e+02 
       7.009246080454e-01       1.627005206077e+02 
       7.528593308799e-01       1.387950843619e+02 
       8.213469537518e-01       1.141656174111e+02 
       9.196980813302e-01       8.833837424527e+01 
       1.075112183810e+00       6.170729252663e+01 
       1.322697471132e+00       3.802633733844e+01 
       1.662328205042e+00       2.208415271056e+01 
       2.092692408506e+00       1.265765888808e+01 
       2.634543445090e+00       7.193854420115e+00 
       3.316693691389e+00       4.057379042560e+00 
       4.175469971226e+00       2.272316276522e+00 
       5.256605252960e+00       1.264261926896e+00 
       6.617673932723e+00       6.990421363485e-01 
       8.331157880872e+00       3.842057990063e-01 
       1.048830636590e+01       2.099011022021e-01 
       1.320399541071e+01       1.139620624356e-01 
       1.662284535976e+01       6.145568056077e-02 
       2.092692243973e+01       3.288133487024e-02 
       2.634543445002e+01       1.742442059842e-02 
       3.316693691389e+01       9.119098158264e-03 
       4.175469971226e+01       4.692614503720e-03 
       5.256605252960e+01       2.358214492132e-03 
       6.617673932723e+01       1.145287659110e-03 
