# Matter power spectrum P(k) at redshift z=0
# for k=1.04775e-05 to 66.1767 h/Mpc,
# number of wavenumbers equal to 130
#    1:k (h/Mpc)              2:P (Mpc/h)^3        
       1.047750691046e-05       5.020964811312e+01 
       1.319039970183e-05       6.270562594808e+01 
       1.660572937635e-05       7.831147247912e+01 
       2.090537469327e-05       9.780108069320e+01 
       2.631830744443e-05       1.221408203809e+02 
       3.313278603720e-05       1.525374501932e+02 
       4.171170630578e-05       1.904975994009e+02 
       5.251192703764e-05       2.379022224247e+02 
       6.610859936996e-05       2.970989227884e+02 
       8.322579568497e-05       3.710167318946e+02 
       1.047750691046e-04       4.633080766742e+02 
       1.319039970183e-04       5.785234129344e+02 
       1.660572937635e-04       7.223242666092e+02 
       2.090537469327e-04       9.017396271824e+02 
       2.631830744443e-04       1.125468123750e+03 
       3.313278603720e-04       1.404223053681e+03 
       4.171170630578e-04       1.751108028791e+03 
       5.251192703764e-04       2.181998448133e+03 
       6.610859936996e-04       2.715889983593e+03 
       8.322579568497e-04       3.375152337115e+03 
       1.047750691046e-03       4.185552174324e+03 
       1.319039970183e-03       5.175742743488e+03 
       1.660572937635e-03       6.376123051795e+03 
       2.090537469327e-03       7.815671852970e+03 
       2.631830744443e-03       9.517783069029e+03 
       3.313278603720e-03       1.149357460322e+04 
       4.171170630578e-03       1.373266001924e+04 
       5.251192703764e-03       1.619063614336e+04 
       6.610859936996e-03       1.877460424738e+04 
       8.322579568497e-03       2.132607231212e+04 
       1.047750691046e-02       2.360548691083e+04 
       1.319039970183e-02       2.528218654455e+04 
       1.660572937633e-02       2.595029225417e+04 
       2.090537453514e-02       2.520932875774e+04 
       2.631818545635e-02       2.287033782172e+04 
       3.311571692125e-02       1.928623180060e+04 
       4.113809243311e-02       1.568427743239e+04 
       4.792590854610e-02       1.361062353177e+04 
       5.284436902701e-02       1.259130519875e+04 
       5.689644391095e-02       1.195555992421e+04 
       6.051252627066e-02       1.147547156899e+04 
       6.388413457411e-02       1.105586285501e+04 
       6.711249296401e-02       1.064900061499e+04 
       7.025823437965e-02       1.022930230644e+04 
       7.336115587705e-02       9.784476314783e+03 
       7.644928796912e-02       9.311637439336e+03 
       7.954353299775e-02       8.814512148550e+03 
       8.266024078725e-02       8.302113756918e+03 
       8.581273398637e-02       7.786941525162e+03 
       8.901225918437e-02       7.283188550141e+03 
       9.226860540985e-02       6.805152078878e+03 
       9.559052048996e-02       6.365660462661e+03 
       9.898599946599e-02       5.974383370538e+03 
       1.024624891378e-01       5.637346662618e+03 
       1.060270359164e-01       5.355787787391e+03 
       1.096863943056e-01       5.126251988933e+03 
       1.134471073830e-01       4.940474445687e+03 
       1.173155669539e-01       4.786170135532e+03 
       1.212980586983e-01       4.647921701304e+03 
       1.254007961065e-01       4.509114563205e+03 
       1.296299459934e-01       4.354536128481e+03 
       1.339916477160e-01       4.173220776152e+03 
       1.384920277736e-01       3.961175570722e+03 
       1.431372111762e-01       3.722654298096e+03 
       1.479333307714e-01       3.469563298876e+03 
       1.528865355934e-01       3.218334987602e+03 
       1.580029992204e-01       2.986279826505e+03 
       1.632889290723e-01       2.786962033641e+03 
       1.687505775527e-01       2.626822897198e+03 
       1.743942559171e-01       2.503765849108e+03 
       1.802263517371e-01       2.407325876084e+03 
       1.862533508214e-01       2.322250148259e+03 
       1.924818644494e-01       2.231554016315e+03 
       1.989186627765e-01       2.122186728172e+03 
       2.055707152847e-01       1.992023805239e+03 
       2.124452391818e-01       1.850317201128e+03 
       2.195497567139e-01       1.712164072358e+03 
       2.268921624510e-01       1.590979708371e+03 
       2.344808017550e-01       1.493662293008e+03 
       2.423245618548e-01       1.418302245646e+03 
       2.504329772620e-01       1.354465440086e+03 
       2.588163516754e-01       1.288927493857e+03 
       2.674858990930e-01       1.213928597333e+03 
       2.764539076010e-01       1.130690977826e+03 
       2.857339303080e-01       1.048091614113e+03 
       2.953410092148e-01       9.761774830677e+02 
       3.052919395542e-01       9.178080230568e+02 
       3.156055844677e-01       8.678920364825e+02 
       3.263032530092e-01       8.185194882151e+02 
       3.374091587054e-01       7.651436434796e+02 
       3.489509817175e-01       7.106686553426e+02 
       3.609605657343e-01       6.607803407367e+02 
       3.734747921333e-01       6.180790012770e+02 
       3.865366902904e-01       5.793047869339e+02 
       4.001968667448e-01       5.403864398597e+02 
       4.145153713076e-01       5.011473083428e+02 
       4.295641718077e-01       4.644934178833e+02 
       4.454304922144e-01       4.314037213043e+02 
       4.622214006969e-01       4.001076519400e+02 
       4.800702491654e-01       3.690855755101e+02 
       4.991459272112e-01       3.394707970553e+02 
       5.196665217302e-01       3.119817564381e+02 
       5.419201087032e-01       2.852435613360e+02 
       5.662975451962e-01       2.593278037225e+02 
       5.933463737275e-01       2.345434686844e+02 
       6.238638458458e-01       2.102265577041e+02 
       6.590669257916e-01       1.864303387341e+02 
       7.009246080454e-01       1.627214309736e+02 
       7.528593308799e-01       1.388145179334e+02 
       8.213469537518e-01       1.141847162655e+02 
       9.196980813302e-01       8.835596006309e+01 
       1.075112183810e+00       6.172339957801e+01 
       1.322697471132e+00       3.804012765285e+01 
       1.662328205042e+00       2.209575466417e+01 
       2.092692408506e+00       1.266737808197e+01 
       2.634543445090e+00       7.201822560063e+00 
       3.316693691389e+00       4.063899365462e+00 
       4.175469971226e+00       2.277594416959e+00 
       5.256605252960e+00       1.268536289087e+00 
       6.617673932723e+00       7.024726489919e-01 
       8.331157880872e+00       3.869434717549e-01 
       1.048830636590e+01       2.120788923476e-01 
       1.320399541071e+01       1.156896342704e-01 
       1.662284535976e+01       6.282036322706e-02 
       2.092692243973e+01       3.395529503971e-02 
       2.634543445002e+01       1.826574706049e-02 
       3.316693691389e+01       9.773884134171e-03 
       4.175469971226e+01       5.197665088648e-03 
       5.256605252960e+01       2.742679366868e-03 
       6.617673932723e+01       1.432333671798e-03 
