# Matter power spectrum P(k) at redshift z=0
# for k=1.04775e-05 to 157.312 h/Mpc,
# number of wavenumbers equal to 257
#    1:k (h/Mpc)              2:P (Mpc/h)^3        
       1.047750691338e-05       5.020963906804e+01 
       1.131335172818e-05       5.407048937148e+01 
       1.221587619877e-05       5.822820724029e+01 
       1.319039970550e-05       6.270562047249e+01 
       1.424266598317e-05       6.752731476098e+01 
       1.537887697396e-05       7.271975715395e+01 
       1.660572938097e-05       7.831147101246e+01 
       1.793045413791e-05       8.433312302135e+01 
       1.936085902737e-05       9.081780130646e+01 
       2.090537469909e-05       9.780107449545e+01 
       2.257310435923e-05       1.053212938596e+02 
       2.437387742372e-05       1.134197268469e+02 
       2.631830745176e-05       1.221408285625e+02 
       2.841785470091e-05       1.315324590474e+02 
       3.068489367268e-05       1.416461671356e+02 
       3.313278604643e-05       1.525374478904e+02 
       3.577595943165e-05       1.642660517209e+02 
       3.862999240274e-05       1.768963429374e+02 
       4.171170631739e-05       1.904975997819e+02 
       4.503926445983e-05       2.051444243234e+02 
       4.863227909323e-05       2.209171412049e+02 
       5.251192705226e-05       2.379022266148e+02 
       5.670107455699e-05       2.561927841241e+02 
       6.122441198393e-05       2.758890479689e+02 
       6.610859938837e-05       2.970989213983e+02 
       7.138242363583e-05       3.199385559930e+02 
       7.707696806873e-05       3.445329727006e+02 
       8.322579570814e-05       3.710167324010e+02 
       8.986514707061e-05       3.995346444122e+02 
       9.703415376577e-05       4.302425389349e+02 
       1.047750691338e-04       4.633080773458e+02 
       1.131335172818e-04       4.989116271617e+02 
       1.221587619877e-04       5.372471938794e+02 
       1.319039970550e-04       5.785234116879e+02 
       1.424266598317e-04       6.229645933133e+02 
       1.537887697396e-04       6.708118487510e+02 
       1.660572938097e-04       7.223242657763e+02 
       1.793045413791e-04       7.777801571266e+02 
       1.936085902737e-04       8.374783638365e+02 
       2.090537469909e-04       9.017396276717e+02 
       2.257310435923e-04       9.709080297651e+02 
       2.437387742372e-04       1.045352453376e+03 
       2.631830745176e-04       1.125468127721e+03 
       2.841785470091e-04       1.211678185928e+03 
       3.068489367268e-04       1.304435256065e+03 
       3.313278604643e-04       1.404223062921e+03 
       3.577595943165e-04       1.511558029577e+03 
       3.862999240274e-04       1.626990852555e+03 
       4.171170631739e-04       1.751108045602e+03 
       4.503926445983e-04       1.884533404755e+03 
       4.863227909323e-04       2.027929406956e+03 
       5.251192705226e-04       2.181998483913e+03 
       5.670107455699e-04       2.347484146066e+03 
       6.122441198393e-04       2.525171925196e+03 
       6.610859938837e-04       2.715890054979e+03 
       7.138242363583e-04       2.920509779320e+03 
       7.707696806873e-04       3.139945208051e+03 
       8.322579570814e-04       3.375152477018e+03 
       8.986514707061e-04       3.627128020461e+03 
       9.703415376577e-04       3.896905669504e+03 
       1.047750691338e-03       4.185552452611e+03 
       1.131335172818e-03       4.494162775567e+03 
       1.221587619877e-03       4.823851150587e+03 
       1.319039970550e-03       5.175743278700e+03 
       1.424266598317e-03       5.551020298667e+03 
       1.537887697396e-03       5.950789185411e+03 
       1.660572938097e-03       6.376124150026e+03 
       1.793045413791e-03       6.828075236552e+03 
       1.936085902737e-03       7.307627051003e+03 
       2.090537469909e-03       7.815673958985e+03 
       2.257310435923e-03       8.352992922887e+03 
       2.437387742372e-03       8.920214306217e+03 
       2.631830745176e-03       9.517787166509e+03 
       2.841785470091e-03       1.014594130645e+04 
       3.068489367268e-03       1.080465136441e+04 
       3.313278604643e-03       1.149358239455e+04 
       3.577595943165e-03       1.221204586778e+04 
       3.862999240274e-03       1.295893666381e+04 
       4.171170631739e-03       1.373267338462e+04 
       4.503926445983e-03       1.453113499817e+04 
       4.863227909323e-03       1.535157114991e+04 
       5.251192705226e-03       1.619066154807e+04 
       5.670107455699e-03       1.704433880830e+04 
       6.122441198393e-03       1.790758124480e+04 
       6.610859938837e-03       1.877461996222e+04 
       7.138242363583e-03       1.963874649982e+04 
       7.707696806873e-03       2.049217384215e+04 
       8.322579570814e-03       2.132608014457e+04 
       8.986514707061e-03       2.213056716316e+04 
       9.703415376577e-03       2.289447297204e+04 
       1.047750691338e-02       2.360549523782e+04 
       1.131335172818e-02       2.425024119765e+04 
       1.221587619877e-02       2.481424700380e+04 
       1.319039970550e-02       2.528219964164e+04 
       1.424266598317e-02       2.563815119814e+04 
       1.537887697392e-02       2.586607606550e+04 
       1.660572938023e-02       2.595027066782e+04 
       1.793045412706e-02       2.587635536804e+04 
       1.936085890181e-02       2.563219646002e+04 
       2.090537352463e-02       2.520936209718e+04 
       2.257309535333e-02       2.460445404636e+04 
       2.437382002918e-02       2.382088825347e+04 
       2.631799944462e-02       2.287044808286e+04 
       2.841644545389e-02       2.177449547897e+04 
       3.067933355377e-02       2.056556709726e+04 
       3.311368470740e-02       1.928731417791e+04 
       3.571840443502e-02       1.799401916443e+04 
       3.847720348444e-02       1.674684548232e+04 
       4.135335538431e-02       1.560459532769e+04 
       4.429361667738e-02       1.461037588073e+04 
       4.724366439141e-02       1.378055627643e+04 
       5.016480835311e-02       1.310505169255e+04 
       5.303989620246e-02       1.255717728077e+04 
       5.586870669566e-02       1.210423848637e+04 
       5.866042680613e-02       1.171464976904e+04 
       6.142798932958e-02       1.136046653138e+04 
       6.418496440164e-02       1.101854706229e+04 
       6.694418833788e-02       1.067068943328e+04 
       6.971731106057e-02       1.030356569624e+04 
       7.251476155766e-02       9.909004690848e+03 
       7.534587671527e-02       9.483723277476e+03 
       7.821907666265e-02       9.029490614724e+03 
       8.114203772912e-02       8.552302846305e+03 
       8.412184535029e-02       8.061876604903e+03 
       8.716512279304e-02       7.570751917454e+03 
       9.027813695930e-02       7.092479955282e+03 
       9.346688431697e-02       6.640511302351e+03 
       9.673716028275e-02       6.226697532935e+03 
       1.000946150830e-01       5.859922478071e+03 
       1.035447986537e-01       5.545259834380e+03 
       1.070931966762e-01       5.283131969996e+03 
       1.107452594425e-01       5.069418375615e+03 
       1.145064249153e-01       4.895242820575e+03 
       1.183821370918e-01       4.747832498274e+03 
       1.223778605862e-01       4.611713155917e+03 
       1.264990921987e-01       4.470597665695e+03 
       1.307513701367e-01       4.310242462867e+03 
       1.351402814784e-01       4.121352325286e+03 
       1.396714684203e-01       3.902042147451e+03 
       1.443506338194e-01       3.658637969821e+03 
       1.491835465229e-01       3.404475935322e+03 
       1.541760469708e-01       3.156651977175e+03 
       1.593340535561e-01       2.931936619338e+03 
       1.646635702297e-01       2.742351806950e+03 
       1.701706958456e-01       2.592230468442e+03 
       1.758616357459e-01       2.477212134873e+03 
       1.817427160982e-01       2.385157747693e+03 
       1.878204015065e-01       2.300341661477e+03 
       1.941013164283e-01       2.205732829463e+03 
       2.005922709503e-01       2.090795774296e+03 
       2.073002914972e-01       1.956440647887e+03 
       2.142326570816e-01       1.814173115088e+03 
       2.213969417533e-01       1.679259517309e+03 
       2.288010639706e-01       1.563819312346e+03 
       2.364533437147e-01       1.472659544509e+03 
       2.443625682930e-01       1.401496731055e+03 
       2.525380679504e-01       1.338389670786e+03 
       2.609898026346e-01       1.270877663751e+03 
       2.697284615565e-01       1.193360509880e+03 
       2.787655775689e-01       1.109316739958e+03 
       2.881136588829e-01       1.028744922089e+03 
       2.977863412677e-01       9.604565923805e+02 
       3.077985646929e-01       9.049990174877e+02 
       3.181667794071e-01       8.561211172103e+02 
       3.289091877812e-01       8.061638053359e+02 
       3.400460299658e-01       7.523674288844e+02 
       3.515999236474e-01       6.988982675858e+02 
       3.635962711085e-01       6.510396983545e+02 
       3.760637506334e-01       6.100982839269e+02 
       3.890349143879e-01       5.721084220391e+02 
       4.025469216825e-01       5.337595750093e+02 
       4.166424456376e-01       4.956099207475e+02 
       4.313708035863e-01       4.604462757017e+02 
       4.467893782977e-01       4.287541593911e+02 
       4.629654199663e-01       3.987504941574e+02 
       4.799783501994e-01       3.692198988600e+02 
       4.979227319373e-01       3.412193046168e+02 
       5.169121270864e-01       3.154627648587e+02 
       5.370841404489e-01       2.908152514639e+02 
       5.586070464571e-01       2.670855258518e+02 
       5.816885094930e-01       2.447897963189e+02 
       6.065870144995e-01       2.235483641715e+02 
       6.336266468475e-01       2.031911917290e+02 
       6.632156059511e-01       1.838598063909e+02 
       6.958678639262e-01       1.653365289428e+02 
       7.322247985589e-01       1.476781735943e+02 
       7.730680195113e-01       1.308168921771e+02 
       8.193049553677e-01       1.148146467819e+02 
       8.718988016039e-01       9.974681889595e+01 
       9.317218031081e-01       8.576228492532e+01 
       9.993660908989e-01       7.303996404579e+01 
       1.075037110174e+00       6.172186196753e+01 
       1.158653485707e+00       5.186550570898e+01 
       1.250099157308e+00       4.342745087094e+01 
       1.349432401273e+00       3.627724993277e+01 
       1.456947457397e+00       3.025662218854e+01 
       1.573135111331e+00       2.520350891346e+01 
       1.698621895592e+00       2.097163445920e+01 
       1.834127512934e+00       1.743263722585e+01 
       1.980444934528e+00       1.447643046868e+01 
       2.138435191726e+00       1.201022404734e+01 
       2.309029199186e+00       9.954964752820e+00 
       2.493232377687e+00       8.244081179743e+00 
       2.692130395285e+00       6.821333680938e+00 
       2.906895534573e+00       5.639400819570e+00 
       3.138793597714e+00       4.658448504029e+00 
       3.389191366484e+00       3.845050606482e+00 
       3.659564657905e+00       3.171251769102e+00 
       3.951507022538e+00       2.613549339923e+00 
       4.266739136701e+00       2.152322355949e+00 
       4.607118943941e+00       1.771243703042e+00 
       4.974652605557e+00       1.456590764584e+00 
       5.371506324689e+00       1.197008670059e+00 
       5.800019113685e+00       9.830071333813e-01 
       6.262716579983e+00       8.067234690925e-01 
       6.762325811764e+00       6.616160898726e-01 
       7.301791451110e+00       5.422463156640e-01 
       7.884293049406e+00       4.441196621376e-01 
       8.513263807261e+00       3.635075961871e-01 
       9.192410809424e+00       2.973295748697e-01 
       9.925736873929e+00       2.430351040934e-01 
       1.071756414427e+01       1.985189554733e-01 
       1.157255956364e+01       1.620427960725e-01 
       1.249576238137e+01       1.321727641163e-01 
       1.349261385375e+01       1.077273006599e-01 
       1.456898931416e+01       8.773362743440e-02 
       1.573123280165e+01       7.139193835256e-02 
       1.698619445202e+01       5.804204264981e-02 
       1.834127087176e+01       4.714406037962e-02 
       1.980444873285e+01       3.825410095604e-02 
       2.138435184532e+01       3.100572559971e-02 
       2.309029198506e+01       2.510109453043e-02 
       2.493232377636e+01       2.029398742450e-02 
       2.692130395282e+01       1.638321352609e-02 
       2.906895534573e+01       1.320492970786e-02 
       3.138793597714e+01       1.062378432569e-02 
       3.389191366484e+01       8.529801023223e-03 
       3.659564657905e+01       6.833005029359e-03 
       3.951507022538e+01       5.459481333407e-03 
       4.266739136701e+01       4.349325317058e-03 
       4.607118943941e+01       3.453304237982e-03 
       4.974652605557e+01       2.731485379438e-03 
       5.371506324689e+01       2.151142987430e-03 
       5.800019113685e+01       1.685690578966e-03 
       6.262716579983e+01       1.313406311792e-03 
       6.762325811764e+01       1.016613516901e-03 
       7.301791451110e+01       7.809337897782e-04 
       7.884293049406e+01       5.946232199605e-04 
       8.513263807261e+01       4.481613905585e-04 
       9.192410809424e+01       3.337573122529e-04 
       9.925736873929e+01       2.451192425843e-04 
       1.071756414427e+02       1.770746040797e-04 
       1.157255956364e+02       1.254430355745e-04 
       1.249576238137e+02       8.680061193230e-05 
       1.349261385375e+02       5.837384804812e-05 
       1.456898931416e+02       3.789939279336e-05 
       1.573123280165e+02       2.353369606028e-05 
