# Matter power spectrum P(k) at redshift z=99
# for k=1.04775e-05 to 66.1767 h/Mpc,
# number of wavenumbers equal to 130
#    1:k (h/Mpc)              2:P (Mpc/h)^3        
       1.047750691046e-05       7.261927707093e-03 
       1.319039970183e-05       9.069258234763e-03 
       1.660572937635e-05       1.132639110811e-02 
       2.090537469327e-05       1.414527128494e-02 
       2.631830744443e-05       1.766569590441e-02 
       3.313278603720e-05       2.206225523886e-02 
       4.171170630578e-05       2.755297776151e-02 
       5.251192703764e-05       3.441013535468e-02 
       6.610859936996e-05       4.297372188267e-02 
       8.322579568497e-05       5.366826872201e-02 
       1.047750691046e-04       6.702379896891e-02 
       1.319039970183e-04       8.370193471384e-02 
       1.660572937635e-04       1.045283359131e-01 
       2.090537469327e-04       1.305329138761e-01 
       2.631830744443e-04       1.629994512344e-01 
       3.313278603720e-04       2.035264011746e-01 
       4.171170630578e-04       2.541004753020e-01 
       5.251192703764e-04       3.171839539236e-01 
       6.610859936996e-04       3.958147269217e-01 
       8.322579568497e-04       4.937136021173e-01 
       1.047750691046e-03       6.153841651961e-01 
       1.319039970183e-03       7.661720607742e-01 
       1.660572937635e-03       9.522588025081e-01 
       2.090537469327e-03       1.180312990180e+00 
       2.631830744443e-03       1.456802676638e+00 
       3.313278603720e-03       1.786503829593e+00 
       4.171170630578e-03       2.169896154516e+00 
       5.251192703764e-03       2.599430466521e+00 
       6.610859936996e-03       3.055668295798e+00 
       8.322579568497e-03       3.505724601962e+00 
       1.047750691046e-02       3.905488683060e+00 
       1.319039970183e-02       4.200909892470e+00 
       1.660572937633e-02       4.325049288949e+00 
       2.090537453514e-02       4.210175509739e+00 
       2.631818545635e-02       3.825100636810e+00 
       3.311571692125e-02       3.228974539390e+00 
       4.113809243311e-02       2.627583115733e+00 
       4.792590854610e-02       2.280593022149e+00 
       5.284436902701e-02       2.109846102698e+00 
       5.689644391095e-02       2.003273171441e+00 
       6.051252627066e-02       1.922764550523e+00 
       6.388413457411e-02       1.852418379410e+00 
       6.711249296401e-02       1.784232541074e+00 
       7.025823437965e-02       1.713929705811e+00 
       7.336115587705e-02       1.639450919321e+00 
       7.644928796912e-02       1.560290529251e+00 
       7.954353299775e-02       1.477072027868e+00 
       8.266024078725e-02       1.391304518860e+00 
       8.581273398637e-02       1.305061959096e+00 
       8.901225918437e-02       1.220721490956e+00 
       9.226860540985e-02       1.140662991343e+00 
       9.559052048996e-02       1.067025087759e+00 
       9.898599946599e-02       1.001453304543e+00 
       1.024624891378e-01       9.449354706086e-01 
       1.060270359164e-01       8.976927667442e-01 
       1.096863943056e-01       8.591403801105e-01 
       1.134471073830e-01       8.279187580571e-01 
       1.173155669539e-01       8.019631649613e-01 
       1.212980586983e-01       7.787104144403e-01 
       1.254007961065e-01       7.553865963590e-01 
       1.296299459934e-01       7.294364138846e-01 
       1.339916477160e-01       6.990382824002e-01 
       1.384920277736e-01       6.635170836297e-01 
       1.431372111762e-01       6.235818555156e-01 
       1.479333307714e-01       5.811975131975e-01 
       1.528865355934e-01       5.391244154685e-01 
       1.580029992204e-01       5.002463687111e-01 
       1.632889290723e-01       4.668279347131e-01 
       1.687505775527e-01       4.399555864748e-01 
       1.743942559171e-01       4.192791212505e-01 
       1.802263517371e-01       4.030603294114e-01 
       1.862533508214e-01       3.887486307857e-01 
       1.924818644494e-01       3.735131632915e-01 
       1.989186627765e-01       3.551761263045e-01 
       2.055707152847e-01       3.333716524862e-01 
       2.124452391818e-01       3.096407958061e-01 
       2.195497567139e-01       2.865003855646e-01 
       2.268921624510e-01       2.661864911036e-01 
       2.344808017550e-01       2.498593536460e-01 
       2.423245618548e-01       2.372028160059e-01 
       2.504329772620e-01       2.264745397302e-01 
       2.588163516754e-01       2.154742433022e-01 
       2.674858990930e-01       2.029021833446e-01 
       2.764539076010e-01       1.889564220900e-01 
       2.857339303080e-01       1.751196047643e-01 
       2.953410092148e-01       1.630638540081e-01 
       3.052919395542e-01       1.532696897804e-01 
       3.156055844677e-01       1.448913009117e-01 
       3.263032530092e-01       1.366089771287e-01 
       3.374091587054e-01       1.276625859593e-01 
       3.489509817175e-01       1.185361430653e-01 
       3.609605657343e-01       1.101751474529e-01 
       3.734747921333e-01       1.030141361491e-01 
       3.865366902904e-01       9.651133454283e-02 
       4.001968667448e-01       8.998793504822e-02 
       4.145153713076e-01       8.341320297342e-02 
       4.295641718077e-01       7.727134027831e-02 
       4.454304922144e-01       7.172519047605e-02 
       4.622214006969e-01       6.648064478123e-02 
       4.800702491654e-01       6.128340780220e-02 
       4.991459272112e-01       5.632305948222e-02 
       5.196665217302e-01       5.171772939035e-02 
       5.419201087032e-01       4.723985779040e-02 
       5.662975451962e-01       4.290067546794e-02 
       5.933463737275e-01       3.875170840379e-02 
       6.238638458458e-01       3.468199660806e-02 
       6.590669257916e-01       3.070059628229e-02 
       7.009246080454e-01       2.673562107041e-02 
       7.528593308799e-01       2.273946286652e-02 
       8.213469537518e-01       1.862549834309e-02 
       9.196980813302e-01       1.431631803894e-02 
       1.075112183810e+00       9.882088324509e-03 
       1.322697471132e+00       5.954599401462e-03 
       1.662328205042e+00       3.330727187792e-03 
       2.092692408506e+00       1.800486968921e-03 
       2.634543445090e+00       9.346265804854e-04 
       3.316693691389e+00       4.580945046473e-04 
       4.175469971226e+00       2.062167099040e-04 
       5.256605252960e+00       8.133010806810e-05 
       6.617673932723e+00       2.569821931538e-05 
       8.331157880872e+00       5.259652061757e-06 
       1.048830636590e+01       2.730146899660e-07 
       1.320399541071e+01       1.615239309761e-07 
       1.662284535976e+01       4.490119189698e-07 
       2.092692243973e+01       2.745466503197e-07 
       2.634543445002e+01       5.366633911015e-08 
       3.316693691389e+01       1.142346079751e-10 
       4.175469971226e+01       3.133365570141e-09 
       5.256605252960e+01       6.989315531531e-10 
       6.617673932723e+01       9.195373329868e-12 
